Counter,Time,SFR,Bin 6,Bin 11,Bin 1,Bin 7,Bin 5,Bin 15,Bin7 MToF,Bin 12,Bin1 MToF,Bin5 MToF,Bin 2,Pressure,PM1,Temperature,Bin 14,Sampling Period,Bin3 MToF,Bin 3,Bin 13,Bin 8,PM10,Bin 4,Bin 10,PM2.5,Bin 9,Bin 0,Checksum
1,0.0001049041748046875,3.692685604095459,0,0,13,0,0,0,0.0,0,7.666666666666667,0.0,3,,0.13494661450386047,,0,46.20441436767578,0.0,0,0,0,0.1549345999956131,0,0,0.15475529432296753,0,35,51
2,0.6020047664642334,3.692685604095459,0,0,0,0,0,0,0.0,0,0.0,0.0,0,,0.0,,0,0.503658652305603,0.0,0,0,0,0.0,0,0,0.0,0,0,0
3,1.20182204246521,3.692685604095459,0,0,0,0,0,0,0.0,0,0.0,0.0,0,,0.0,,0,0.5042773485183716,0.0,0,0,0,0.0,0,0,0.0,0,0,0
4,1.8000757694244385,3.692685604095459,0,0,0,0,0,0,0.0,0,0.0,0.0,0,,0.0,,0,0.5035093426704407,0.0,0,0,0,0.0,0,0,0.0,0,0,0
5,2.4138472080230713,3.692685604095459,0,0,0,0,0,0,0.0,0,0.0,0.0,0,,0.0,,0,0.5042773485183716,0.0,0,0,0,0.0,0,0,0.0,0,0,0
6,3.0113542079925537,3.701890468597412,0,0,1,0,0,0,0.0,0,5.666666666666667,0.0,1,,0.7386572957038879,,0,0.502784013748169,0.0,0,0,0,1.0846410989761353,0,0,1.0798819065093994,0,0,2
7,3.6115527153015137,3.701890468597412,0,0,0,0,0,0,0.0,0,0.0,0.0,0,,0.0,,0,0.5039786696434021,0.0,0,0,0,0.0,0,0,0.0,0,0,0
8,4.210291385650635,3.701890468597412,0,0,0,0,0,0,0.0,0,0.0,0.0,0,,0.0,,0,0.5034880042076111,0.0,0,0,0,0.0,0,0,0.0,0,0,0
9,4.810241460800171,3.701890468597412,0,0,0,0,0,0,0.0,0,0.0,0.0,0,,0.3890950083732605,,0,0.5042346715927124,0.0,0,0,0,0.4002092182636261,0,0,0.4002021551132202,0,2,2
10,5.4089438915252686,3.701890468597412,1,0,0,0,0,0,0.0,0,0.0,0.0,0,,0.019089898094534874,,0,0.5036159753799438,0.0,0,0,0,1.7534884214401245,0,0,0.8530622124671936,0,0,1
11,6.0089147090911865,3.6988260746002197,0,0,1,0,0,0,0.0,0,7.0,0.0,0,,0.33177897334098816,,0,0.5043839812278748,0.0,0,0,0,0.39156439900398254,0,0,0.39136144518852234,0,0,1
12,6.621234893798828,3.6988260746002197,0,0,0,0,0,0,0.0,0,0.0,0.0,0,,0.0,,0,0.5039573311805725,0.0,0,0,0,0.0,0,0,0.0,0,0,0
13,7.2270472049713135,3.6988260746002197,0,0,0,0,0,0,0.0,0,0.0,0.0,0,,0.0,,0,0.5042986869812012,0.0,0,0,0,0.0,0,0,0.0,0,0,0
14,7.826204538345337,3.6988260746002197,0,0,0,0,0,0,0.0,0,0.0,0.0,0,,0.0,,0,0.5037013292312622,0.0,0,0,0,0.0,0,0,0.0,0,0,0
15,8.42969536781311,3.6988260746002197,0,0,0,0,0,0,0.0,0,0.0,0.0,0,,0.0,,0,0.5049386620521545,0.0,0,0,0,0.0,0,0,0.0,0,0,0
16,9.031487226486206,3.6988260746002197,0,0,0,0,0,0,0.0,0,0.0,0.0,0,,0.19486531615257263,,0,0.5038293600082397,0.0,0,0,0,0.20043151080608368,0,0,0.20042796432971954,0,1,1
17,9.63143515586853,3.6988260746002197,0,0,0,0,0,0,0.0,0,0.0,0.0,0,,0.0,,0,0.5045760273933411,0.0,0,0,0,0.0,0,0,0.0,0,0,0
18,10.246845722198486,3.6988260746002197,0,0,0,0,0,0,0.0,0,0.0,0.0,0,,0.19503876566886902,,0,0.5033813118934631,0.0,0,0,0,0.20060990750789642,0,0,0.2006063610315323,0,1,1
19,10.849247217178345,3.6988260746002197,0,0,0,0,0,0,0.0,0,0.0,0.0,0,,0.1947581171989441,,0,0.5041066408157349,0.0,0,0,0,0.2003212571144104,0,0,0.20031772553920746,0,1,1
20,11.447585105895996,3.714062213897705,0,0,1,0,0,0,0.0,0,5.0,0.0,0,,0.33100590109825134,,0,0.5034880042076111,0.0,0,0,0,0.39065203070640564,0,0,0.39044952392578125,0,0,1
21,12.047104358673096,3.714062213897705,0,0,0,0,0,0,0.0,0,0.0,0.0,0,,0.0,,0,0.5036373138427734,0.0,0,0,0,0.0,0,0,0.0,0,0,0
22,12.645326137542725,3.714062213897705,0,0,0,0,0,0,0.0,0,0.0,0.0,0,,0.19432924687862396,,0,0.5031466484069824,0.0,0,0,0,0.19988012313842773,0,0,0.199876606464386,0,1,1
23,13.244730710983276,3.714062213897705,0,0,0,0,0,0,0.0,0,0.0,0.0,0,,0.0,,0,0.5042773485183716,0.0,0,0,0,0.0,0,0,0.0,0,0,0
24,13.8429274559021,3.714062213897705,0,0,0,0,0,0,0.0,0,0.0,0.0,0,,0.0,,0,0.5034239888191223,0.0,0,0,0,0.0,0,0,0.0,0,0,0
25,14.443047046661377,3.714062213897705,0,0,0,0,0,0,0.0,0,0.0,0.0,0,,0.0,,0,0.504256010055542,0.0,0,0,0,0.0,0,0,0.0,0,0,0
26,15.041341781616211,3.714062213897705,0,0,0,0,0,0,0.0,0,0.0,0.0,0,,0.0,,0,0.5035306811332703,0.0,0,0,0,0.0,0,0,0.0,0,0,0
27,15.642693758010864,3.714062213897705,0,0,0,0,0,0,0.0,0,0.0,0.0,0,,0.19393454492092133,,0,0.5041706562042236,0.0,0,0,0,0.19947415590286255,0,0,0.1994706392288208,0,1,1
28,16.240981340408325,3.714062213897705,0,0,0,0,0,0,0.0,0,0.0,0.0,0,,0.0,,0,0.5034880042076111,0.0,0,0,0,0.0,0,0,0.0,0,0,0
29,16.84096670150757,3.714062213897705,0,0,0,0,0,0,0.0,0,0.0,0.0,0,,0.19388531148433685,,0,0.5042986869812012,0.0,0,0,0,0.19942350685596466,0,0,0.1994199901819229,0,1,1
30,17.439379692077637,3.714062213897705,0,0,0,0,0,0,0.0,0,0.0,0.0,0,,0.19415636360645294,,0,0.5035946369171143,0.0,0,0,0,0.19970230758190155,0,0,0.1996987909078598,0,1,1
31,18.039695501327515,3.714062213897705,0,0,0,0,0,0,0.0,0,0.0,0.0,0,,0.0,,0,0.5043413043022156,0.0,0,0,0,0.0,0,0,0.0,0,0,0
32,18.640689373016357,3.714062213897705,0,0,0,0,0,0,0.0,0,0.0,0.0,0,,0.0,,0,0.5037013292312622,0.0,0,0,0,0.0,0,0,0.0,0,0,0
33,19.240579843521118,3.714062213897705,0,0,0,0,0,0,0.0,0,0.0,0.0,0,,0.19387710094451904,,0,0.5043200254440308,0.0,0,0,0,0.19941507279872894,0,0,0.1994115561246872,0,1,1
34,19.839247941970825,3.714062213897705,0,0,0,0,0,0,0.0,0,0.0,0.0,0,,0.0,,0,0.5039786696434021,0.0,0,0,0,0.0,0,0,0.0,0,0,0
35,20.43940544128418,3.714062213897705,0,0,0,0,0,0,0.0,0,0.0,0.0,0,,0.0,,0,0.5050453543663025,0.0,0,0,0,0.0,0,0,0.0,0,0,0
36,21.040127992630005,3.714062213897705,0,0,0,0,0,0,0.0,0,0.0,0.0,0,,0.19403307139873505,,0,0.5039146542549133,0.0,0,0,0,0.1995754837989807,0,0,0.19957196712493896,0,1,1
37,21.645121097564697,3.714062213897705,0,0,0,0,0,0,0.0,0,0.0,0.0,0,,0.0,,0,0.5047039985656738,0.0,0,0,0,0.0,0,0,0.0,0,0,0
38,22.24703073501587,3.714062213897705,0,0,0,0,0,0,0.0,0,0.0,0.0,0,,0.0,,0,0.5038293600082397,0.0,0,0,0,0.0,0,0,0.0,0,0,0
39,22.849515438079834,3.714062213897705,0,0,0,0,0,0,0.0,0,0.0,0.0,0,,0.0,,0,0.5046399831771851,0.0,0,0,0,0.0,0,0,0.0,0,0,0
40,23.447307348251343,3.714062213897705,0,0,0,0,0,0,0.0,0,0.0,0.0,0,,0.0,,0,0.5034239888191223,0.0,0,0,0,0.0,0,0,0.0,0,0,0
41,24.046042680740356,3.714062213897705,0,0,0,0,0,0,0.0,0,0.0,0.0,0,,0.0,,0,0.5041919946670532,0.0,0,0,0,0.0,0,0,0.0,0,0,0
42,24.644700527191162,3.714062213897705,0,0,0,0,0,0,0.0,0,0.0,0.0,0,,0.0,,0,0.5035520195960999,0.0,0,0,0,0.0,0,0,0.0,0,0,0
43,25.243449449539185,3.714062213897705,0,0,0,0,0,0,0.0,0,0.0,0.0,0,,0.0,,0,0.504149317741394,0.0,0,0,0,0.0,0,0,0.0,0,0,0
44,25.841739892959595,3.714062213897705,0,0,0,0,0,0,0.0,0,0.0,0.0,0,,0.0,,0,0.5034666657447815,0.0,0,0,0,0.0,0,0,0.0,0,0,0
45,26.441710233688354,3.714062213897705,0,0,0,0,0,0,0.0,0,0.0,0.0,0,,0.0,,0,0.5042773485183716,0.0,0,0,0,0.0,0,0,0.0,0,0,0
46,27.039984941482544,3.714062213897705,0,0,0,0,0,0,0.0,0,0.0,0.0,0,,0.0,,0,0.5035093426704407,0.0,0,0,0,0.0,0,0,0.0,0,0,0
47,27.639897108078003,3.714062213897705,0,0,0,0,0,0,0.0,0,0.0,0.0,0,,0.0,,0,0.5041919946670532,0.0,0,0,0,0.0,0,0,0.0,0,0,0
48,28.248204708099365,3.714062213897705,0,0,0,0,0,0,0.0,0,0.0,0.0,0,,0.0,,0,0.5035733580589294,0.0,0,0,0,0.0,0,0,0.0,0,0,0
49,28.847071647644043,3.714062213897705,0,0,0,0,0,0,0.0,0,0.0,0.0,0,,0.0,,0,0.5042986869812012,0.0,0,0,0,0.0,0,0,0.0,0,0,0
50,29.445443630218506,3.714062213897705,0,0,0,0,0,0,0.0,0,0.0,0.0,0,,0.0,,0,0.5034666657447815,0.0,0,0,0,0.0,0,0,0.0,0,0,0
51,30.04533052444458,3.714062213897705,0,0,0,0,0,0,0.0,0,0.0,0.0,0,,0.0,,0,0.5041706562042236,0.0,0,0,0,0.0,0,0,0.0,0,0,0
52,30.653592824935913,3.714062213897705,0,0,0,0,0,0,0.0,0,0.0,0.0,0,,0.0,,0,0.5033386945724487,0.0,0,0,0,0.0,0,0,0.0,0,0,0
53,31.252456188201904,3.714062213897705,0,0,0,0,0,0,0.0,0,0.0,0.0,0,,0.0,,0,0.5042986869812012,0.0,0,0,0,0.0,0,0,0.0,0,0,0
54,31.85110831260681,3.714062213897705,0,0,0,0,0,0,0.0,0,0.0,0.0,0,,0.0,,0,0.5039786696434021,0.0,0,0,0,0.0,0,0,0.0,0,0,0
55,32.456275939941406,3.714062213897705,0,0,0,0,0,0,0.0,0,0.0,0.0,0,,0.0,,0,0.503658652305603,0.0,0,0,0,0.0,0,0,0.0,0,0,0
56,33.05485272407532,3.714062213897705,0,0,0,0,0,0,0.0,0,0.0,0.0,0,,0.0,,0,0.5034666657447815,0.0,0,0,0,0.0,0,0,0.0,0,0,0
57,33.658010721206665,3.714062213897705,0,0,0,0,0,0,0.0,0,0.0,0.0,0,,0.0,,0,0.5043200254440308,0.0,0,0,0,0.0,0,0,0.0,0,0,0
58,34.257224321365356,3.714062213897705,0,0,0,0,0,0,0.0,0,0.0,0.0,0,,0.0,,0,0.503658652305603,0.0,0,0,0,0.0,0,0,0.0,0,0,0
59,34.86042404174805,3.714062213897705,0,0,0,0,0,0,0.0,0,0.0,0.0,0,,0.0,,0,0.5046613216400146,0.0,0,0,0,0.0,0,0,0.0,0,0,0
60,35.45899820327759,3.714062213897705,0,0,0,0,0,0,0.0,0,0.0,0.0,0,,0.0,,0,0.5040426850318909,0.0,0,0,0,0.0,0,0,0.0,0,0,0
61,36.0597722530365,3.714062213897705,0,0,0,0,0,0,0.0,0,0.0,0.0,0,,0.0,,0,0.5046613216400146,0.0,0,0,0,0.0,0,0,0.0,0,0,0
62,36.65780973434448,3.714062213897705,0,0,0,0,0,0,0.0,0,0.0,0.0,0,,0.0,,0,0.5032960176467896,0.0,0,0,0,0.0,0,0,0.0,0,0,0
63,37.25775480270386,3.714062213897705,0,0,0,0,0,0,0.0,0,0.0,0.0,0,,0.0,,0,0.5041279792785645,0.0,0,0,0,0.0,0,0,0.0,0,0,0
64,37.8577926158905,3.714062213897705,0,0,0,0,0,0,0.0,0,0.0,0.0,0,,0.0,,0,0.5039146542549133,0.0,0,0,0,0.0,0,0,0.0,0,0,0
65,38.45771670341492,3.714062213897705,0,0,0,0,0,0,0.0,0,0.0,0.0,0,,0.0,,0,0.5045760273933411,0.0,0,0,0,0.0,0,0,0.0,0,0,0
66,39.055970907211304,3.714062213897705,0,0,0,0,0,0,0.0,0,0.0,0.0,0,,0.3881811499595642,,0,0.503765344619751,0.0,0,0,0,0.3992692828178406,0,0,0.3992622494697571,0,2,2
67,39.66092348098755,3.714062213897705,0,0,0,0,0,0,0.0,0,0.0,0.0,0,,0.0,,0,0.5043839812278748,0.0,0,0,0,0.0,0,0,0.0,0,0,0
68,40.26033687591553,3.714062213897705,0,0,0,0,0,0,0.0,0,0.0,0.0,0,,0.0,,0,0.5034239888191223,0.0,0,0,0,0.0,0,0,0.0,0,0,0
69,40.85908246040344,3.714062213897705,0,0,0,0,0,0,0.0,0,0.0,0.0,0,,0.0,,0,0.50408536195755,0.0,0,0,0,0.0,0,0,0.0,0,0,0
70,41.45882439613342,3.714062213897705,0,0,0,0,0,0,0.0,0,0.0,0.0,0,,0.0,,0,0.5033813118934631,0.0,0,0,0,0.0,0,0,0.0,0,0,0
71,42.063894748687744,3.714062213897705,0,0,0,0,0,0,0.0,0,0.0,0.0,0,,0.0,,0,0.5041919946670532,0.0,0,0,0,0.0,0,0,0.0,0,0,0
72,42.6759672164917,3.714062213897705,0,0,0,0,0,0,0.0,0,0.0,0.0,0,,0.19422218203544617,,0,0.5034239888191223,0.0,0,0,0,0.1997700035572052,0,0,0.19976648688316345,0,1,1
73,43.274816036224365,3.714062213897705,0,0,0,0,0,0,0.0,0,0.0,0.0,0,,0.0,,0,0.5041919946670532,0.0,0,0,0,0.0,0,0,0.0,0,0,0
74,43.8729522228241,3.714062213897705,0,0,0,0,0,0,0.0,0,0.0,0.0,0,,0.0,,0,0.5031253099441528,0.0,0,0,0,0.0,0,0,0.0,0,0,0
75,44.47256946563721,3.714062213897705,0,0,0,0,0,0,0.0,0,0.0,0.0,0,,0.0,,0,0.5051093101501465,0.0,0,0,0,0.0,0,0,0.0,0,0,0
76,45.074182987213135,3.714062213897705,0,0,0,0,0,0,0.0,0,0.0,0.0,0,,0.0,,0,0.5037440061569214,0.0,0,0,0,0.0,0,0,0.0,0,0,0
77,45.67606544494629,3.714062213897705,0,0,0,0,0,0,0.0,0,0.0,0.0,0,,0.0,,0,0.5038719773292542,0.0,0,0,0,0.0,0,0,0.0,0,0,0
78,46.282018423080444,3.714062213897705,0,0,0,0,0,0,0.0,0,0.0,0.0,0,,0.19429627060890198,,0,0.5032320022583008,0.0,0,0,0,0.19984620809555054,0,0,0.1998426914215088,0,1,1
79,46.88148880004883,3.714062213897705,0,0,0,0,0,0,0.0,0,0.0,0.0,0,,0.0,,0,0.5045546889305115,0.0,0,0,0,0.0,0,0,0.0,0,0,0
80,47.49181818962097,3.714062213897705,0,0,0,0,0,0,0.0,0,0.0,0.0,0,,0.0,,0,0.5033813118934631,0.0,0,0,0,0.0,0,0,0.0,0,0,0
81,48.0906035900116,3.714062213897705,0,0,0,0,0,0,0.0,0,0.0,0.0,0,,0.0,,0,0.5041066408157349,0.0,0,0,0,0.0,0,0,0.0,0,0,0
82,48.68943953514099,3.714062213897705,0,0,0,0,0,0,0.0,0,0.0,0.0,0,,0.0,,0,0.5037226676940918,0.0,0,0,0,0.0,0,0,0.0,0,0,0
83,49.29155349731445,3.714062213897705,0,0,0,0,0,0,0.0,0,0.0,0.0,0,,0.19400842487812042,,0,0.5039786696434021,0.0,0,0,0,0.19955013692378998,0,0,0.19954662024974823,0,1,1
84,49.890018701553345,3.714062213897705,0,0,0,0,0,0,0.0,0,0.0,0.0,0,,0.0,,0,0.5034453272819519,0.0,0,0,0,0.0,0,0,0.0,0,0,0
85,50.48846220970154,3.714062213897705,0,0,0,0,0,0,0.0,0,0.0,0.0,0,,0.0,,0,0.5038506388664246,0.0,0,0,0,0.0,0,0,0.0,0,0,0
86,51.087443590164185,3.714062213897705,0,0,0,0,0,0,0.0,0,0.0,0.0,0,,0.0,,0,0.5036799907684326,0.0,0,0,0,0.0,0,0,0.0,0,0,0
87,51.68744134902954,3.714062213897705,0,0,0,0,0,0,0.0,0,0.0,0.0,0,,0.0,,0,0.5048320293426514,0.0,0,0,0,0.0,0,0,0.0,0,0,0
88,52.288567543029785,3.714062213897705,0,0,0,0,0,0,0.0,0,0.0,0.0,0,,0.19403307139873505,,0,0.5039146542549133,0.0,0,0,0,0.1995754837989807,0,0,0.19957196712493896,0,1,1
89,52.89163613319397,3.714062213897705,0,0,0,0,0,0,0.0,0,0.0,0.0,0,,0.0,,0,0.505237340927124,0.0,0,0,0,0.0,0,0,0.0,0,0,0
90,53.493245124816895,3.714062213897705,0,0,0,0,0,0,0.0,0,0.0,0.0,0,,0.0,,0,0.5039573311805725,0.0,0,0,0,0.0,0,0,0.0,0,0,0
91,54.095648527145386,3.714062213897705,0,0,0,0,0,0,0.0,0,0.0,0.0,0,,0.0,,0,0.5045760273933411,0.0,0,0,0,0.0,0,0,0.0,0,0,0
92,54.69784641265869,3.714062213897705,0,0,0,0,0,0,0.0,0,0.0,0.0,0,,0.0,,0,0.5039573311805725,0.0,0,0,0,0.0,0,0,0.0,0,0,0
93,55.30191135406494,3.714062213897705,0,0,0,0,0,0,0.0,0,0.0,0.0,0,,0.0,,0,0.5048959851264954,0.0,0,0,0,0.0,0,0,0.0,0,0,0
94,55.902464866638184,3.714062213897705,0,0,0,0,0,0,0.0,0,0.0,0.0,0,,0.0,,0,0.5039359927177429,0.0,0,0,0,0.0,0,0,0.0,0,0,0
95,56.51637125015259,3.714062213897705,0,0,0,0,0,0,0.0,0,0.0,0.0,1,,0.40392741560935974,,0,0.5038293600082397,0.0,0,0,0,0.688456118106842,0,0,0.683924674987793,0,0,1
96,57.123711824417114,3.714062213897705,0,0,0,0,0,0,0.0,0,0.0,0.0,0,,0.0,,0,0.5036799907684326,0.0,0,0,0,0.0,0,0,0.0,0,0,0
97,57.726789712905884,3.714062213897705,0,0,0,0,0,0,0.0,0,0.0,0.0,0,,0.0,,0,0.504256010055542,0.0,0,0,0,0.0,0,0,0.0,0,0,0
98,58.33112955093384,3.714062213897705,0,0,0,0,0,0,0.0,0,0.0,0.0,0,,0.0,,0,0.5033599734306335,0.0,0,0,0,0.0,0,0,0.0,0,0,0
99,58.93483591079712,3.714062213897705,0,0,0,0,0,0,0.0,0,0.0,0.0,0,,0.0,,0,0.5039573311805725,0.0,0,0,0,0.0,0,0,0.0,0,0,0
100,59.54454946517944,3.714062213897705,0,0,0,0,0,0,0.0,0,0.0,0.0,0,,0.0,,0,0.5033386945724487,0.0,0,0,0,0.0,0,0,0.0,0,0,0
101,60.14459204673767,3.714062213897705,0,0,0,0,0,0,0.0,0,0.0,0.0,0,,0.0,,0,0.5042773485183716,0.0,0,0,0,0.0,0,0,0.0,0,0,0
102,60.742676734924316,3.714062213897705,0,0,0,0,0,0,0.0,0,0.0,0.0,0,,0.0,,0,0.5032106637954712,0.0,0,0,0,0.0,0,0,0.0,0,0,0
103,61.34228754043579,3.714062213897705,0,0,0,0,0,0,0.0,0,0.0,0.0,0,,0.0,,0,0.5039573311805725,0.0,0,0,0,0.0,0,0,0.0,0,0,0
104,61.94131064414978,3.714062213897705,0,0,0,0,0,0,0.0,0,0.0,0.0,0,,0.0,,0,0.5035093426704407,0.0,0,0,0,0.0,0,0,0.0,0,0,0
105,62.55250525474548,3.714062213897705,0,0,0,0,0,0,0.0,0,0.0,0.0,0,,0.0,,0,0.504149317741394,0.0,0,0,0,0.0,0,0,0.0,0,0,0
106,63.15079164505005,3.714062213897705,0,0,0,0,0,0,0.0,0,0.0,0.0,0,,0.0,,0,0.5034239888191223,0.0,0,0,0,0.0,0,0,0.0,0,0,0
107,63.759469985961914,3.714062213897705,0,0,0,0,0,0,0.0,0,0.0,0.0,0,,0.0,,0,0.5041279792785645,0.0,0,0,0,0.0,0,0,0.0,0,0,0
108,64.35895037651062,3.714062213897705,0,0,0,0,0,0,0.0,0,0.0,0.0,0,,0.0,,0,0.5033386945724487,0.0,0,0,0,0.0,0,0,0.0,0,0,0
109,64.9600830078125,3.714062213897705,0,0,0,0,0,0,0.0,0,0.0,0.0,0,,0.0,,0,0.5040213465690613,0.0,0,0,0,0.0,0,0,0.0,0,0,0
110,65.56726145744324,3.714062213897705,0,0,0,0,0,0,0.0,0,0.0,0.0,0,,0.0,,0,0.5033599734306335,0.0,0,0,0,0.0,0,0,0.0,0,0,0
111,66.16865038871765,3.714062213897705,0,0,0,0,0,0,0.0,0,0.0,0.0,0,,0.0,,0,0.5043200254440308,0.0,0,0,0,0.0,0,0,0.0,0,0,0
112,66.76925945281982,3.714062213897705,0,0,0,0,0,0,0.0,0,0.0,0.0,0,,0.0,,0,0.5033386945724487,0.0,0,0,0,0.0,0,0,0.0,0,0,0
113,67.36792254447937,3.714062213897705,0,0,0,0,0,0,0.0,0,0.0,0.0,0,,0.0,,0,0.5041919946670532,0.0,0,0,0,0.0,0,0,0.0,0,0,0
114,67.96646189689636,3.714062213897705,0,0,0,0,0,0,0.0,0,0.0,0.0,0,,0.0,,0,0.5035306811332703,0.0,0,0,0,0.0,0,0,0.0,0,0,0
115,68.56526851654053,3.714062213897705,0,0,0,0,0,0,0.0,0,0.0,0.0,1,,0.4036710560321808,,0,0.504149317741394,0.0,0,0,0,0.6880192160606384,0,0,0.6834906339645386,0,0,1
116,69.16349172592163,3.714062213897705,0,0,0,0,0,0,0.0,0,0.0,0.0,0,,0.19427156448364258,,0,0.5032960176467896,0.0,0,0,0,0.19982080161571503,0,0,0.19981727004051208,0,1,1
117,69.76232075691223,3.714062213897705,0,0,0,0,0,0,0.0,0,0.0,0.0,0,,0.0,,0,0.504256010055542,0.0,0,0,0,0.0,0,0,0.0,0,0,0
118,70.36067914962769,3.714062213897705,0,0,0,0,0,0,0.0,0,0.0,0.0,0,,0.0,,0,0.5033173561096191,0.0,0,0,0,0.0,0,0,0.0,0,0,0
119,70.95942521095276,3.714062213897705,0,0,0,0,0,0,0.0,0,0.0,0.0,0,,0.0,,0,0.5040000081062317,0.0,0,0,0,0.0,0,0,0.0,0,0,0
120,71.55779981613159,3.714062213897705,0,0,0,0,0,0,0.0,0,0.0,0.0,0,,0.0,,0,0.5034026503562927,0.0,0,0,0,0.0,0,0,0.0,0,0,0
121,72.1566059589386,3.714062213897705,0,0,0,0,0,0,0.0,0,0.0,0.0,0,,0.0,,0,0.504149317741394,0.0,0,0,0,0.0,0,0,0.0,0,0,0
122,72.75499391555786,3.714062213897705,0,0,0,0,0,0,0.0,0,0.0,0.0,0,,0.0,,0,0.5035306811332703,0.0,0,0,0,0.0,0,0,0.0,0,0,0
123,73.35495185852051,3.714062213897705,0,0,0,0,0,0,0.0,0,0.0,0.0,0,,0.0,,0,0.504256010055542,0.0,0,0,0,0.0,0,0,0.0,0,0,0
124,73.95375871658325,3.714062213897705,0,0,0,0,0,0,0.0,0,0.0,0.0,0,,0.0,,0,0.5040640234947205,0.0,0,0,0,0.0,0,0,0.0,0,0,0
125,74.55326104164124,3.714062213897705,0,0,0,0,0,0,0.0,0,0.0,0.0,0,,0.0,,0,0.5042773485183716,0.0,0,0,0,0.0,0,0,0.0,0,0,0
126,75.15143132209778,3.714062213897705,0,0,0,0,0,0,0.0,0,0.0,0.0,0,,0.0,,0,0.5033599734306335,0.0,0,0,0,0.0,0,0,0.0,0,0,0
127,75.74998569488525,3.714062213897705,0,0,0,0,0,0,0.0,0,0.0,0.0,0,,0.0,,0,0.5039786696434021,0.0,0,0,0,0.0,0,0,0.0,0,0,0
128,76.34994435310364,3.714062213897705,0,0,0,0,0,0,0.0,0,0.0,0.0,0,,0.0,,0,0.5036799907684326,0.0,0,0,0,0.0,0,0,0.0,0,0,0
129,76.95261812210083,3.714062213897705,0,0,0,0,0,0,0.0,0,0.0,0.0,0,,0.0,,0,0.5048106908798218,0.0,0,0,0,0.0,0,0,0.0,0,0,0
130,77.55483961105347,3.714062213897705,0,0,0,0,0,0,0.0,0,0.0,0.0,0,,0.0,,0,0.5038933157920837,0.0,0,0,0,0.0,0,0,0.0,0,0,0
131,78.15682101249695,3.714062213897705,0,0,0,0,0,0,0.0,0,0.0,0.0,0,,0.0,,0,0.5042133331298828,0.0,0,0,0,0.0,0,0,0.0,0,0,0
132,78.75638461112976,3.714062213897705,0,0,0,0,0,0,0.0,0,0.0,0.0,0,,0.0,,0,0.5034239888191223,0.0,0,0,0,0.0,0,0,0.0,0,0,0
133,79.35569524765015,3.714062213897705,0,0,0,0,0,0,0.0,0,0.0,0.0,0,,0.0,,0,0.5047680139541626,0.0,0,0,0,0.0,0,0,0.0,0,0,0
134,79.95760703086853,3.714062213897705,0,0,0,0,0,0,0.0,0,0.0,0.0,0,,0.0,,0,0.5039146542549133,0.0,0,0,0,0.0,0,0,0.0,0,0,0
135,80.55980038642883,3.714062213897705,0,0,0,0,0,0,0.0,0,0.0,0.0,0,,0.0,,0,0.5044266581535339,0.0,0,0,0,0.0,0,0,0.0,0,0,0
136,81.1602554321289,3.714062213897705,0,0,0,0,0,0,0.0,0,0.0,0.0,0,,0.0722721517086029,,0,0.5035520195960999,0.0,0,0,0,0.4173995852470398,1,0,0.378272145986557,0,0,1
137,81.76350283622742,3.714062213897705,0,0,0,0,0,0,0.0,0,0.0,0.0,0,,0.0,,0,0.5046613216400146,0.0,0,0,0,0.0,0,0,0.0,0,0,0
138,82.36679863929749,3.714062213897705,0,0,0,0,0,0,0.0,0,0.0,0.0,0,,0.0,,0,0.5038719773292542,0.0,0,0,0,0.0,0,0,0.0,0,0,0
139,82.9664671421051,3.714062213897705,0,0,0,0,0,0,0.0,0,0.0,0.0,0,,0.0,,0,0.5042986869812012,0.0,0,0,0,0.0,0,0,0.0,0,0,0
140,83.56556415557861,3.714062213897705,0,0,0,0,0,0,0.0,0,0.0,0.0,0,,0.0,,0,0.5035946369171143,0.0,0,0,0,0.0,0,0,0.0,0,0,0
141,84.16889667510986,3.714062213897705,0,0,0,0,0,0,0.0,0,0.0,0.0,0,,0.0,,0,0.5046613216400146,0.0,0,0,0,0.0,0,0,0.0,0,0,0
142,84.77091693878174,3.714062213897705,0,0,0,0,0,0,0.0,0,0.0,0.0,0,,0.0,,0,0.5039359927177429,0.0,0,0,0,0.0,0,0,0.0,0,0,0
143,85.37366247177124,3.710777997970581,0,0,1,0,0,0,0.0,0,7.0,0.0,1,,0.734022855758667,,0,0.504746675491333,0.0,0,0,0,1.0778359174728394,0,0,1.0731065273284912,0,0,2
144,85.97561621665955,3.710777997970581,0,0,0,0,0,0,0.0,0,0.0,0.0,0,,0.38836026191711426,,0,0.5039786696434021,0.0,0,0,0,0.3994534909725189,0,0,0.3994464576244354,0,2,2
145,86.57968592643738,3.710777997970581,0,0,0,0,0,0,0.0,0,0.0,0.0,0,,0.0,,0,0.5050879716873169,0.0,0,0,0,0.0,0,0,0.0,0,0,0
146,87.18142676353455,3.710777997970581,0,0,0,0,0,0,0.0,0,0.0,0.0,0,,0.0,,0,0.5039359927177429,0.0,0,0,0,0.0,0,0,0.0,0,0,0
147,87.78395557403564,3.710777997970581,0,0,0,0,0,0,0.0,0,0.0,0.0,0,,0.3877037763595581,,0,0.5048320293426514,0.0,0,0,0,0.3987782597541809,0,0,0.3987712264060974,0,2,2
148,88.38626599311829,3.713653326034546,0,0,1,0,0,0,0.0,0,6.333333333333333,0.0,0,,0.33070605993270874,,0,0.5040000081062317,0.0,0,0,0,0.39029815793037415,0,0,0.3900958299636841,0,0,1
