Counter,Time,PM2.5,Bin 11,Bin5 MToF,PM1,Bin 8,Temperature,SFR,Bin1 MToF,Bin 3,Bin 14,PM10,Checksum,Bin 13,Bin 2,Bin 10,Pressure,Sampling Period,Bin 6,Bin 4,Bin 12,Bin7 MToF,Bin 9,Bin 7,Bin 1,Bin 15,Bin 5,Bin 0,Bin3 MToF
1,0.0001499652862548828,0.001478064339607954,0,0.0,0.0014370422577485442,0,,3.717747926712036,0.0,0,0,0.0014780904166400433,1,0,0,0,,67.97237396240234,0,0,0,0.0,0,0,0,0,0,1,0.0
2,0.6117463111877441,0.0,0,0.0,0.0,0,,3.717747926712036,0.0,0,0,0.0,0,0,0,0,,0.5042133331298828,0,0,0,0.0,0,0,0,0,0,0,0.0
3,1.2098913192749023,0.0,0,0.0,0.0,0,,3.717747926712036,0.0,0,0,0.0,0,0,0,0,,0.5033386945724487,0,0,0,0.0,0,0,0,0,0,0,0.0
4,1.8087666034698486,0.0,0,0.0,0.0,0,,3.717747926712036,0.0,0,0,0.0,0,0,0,0,,0.5042986869812012,0,0,0,0.0,0,0,0,0,0,0,0.0
5,2.420767068862915,0.37800925970077515,0,0.0,0.07222192734479904,0,,3.717747926712036,0.0,0,0,0.41710948944091797,1,0,0,0,,0.5034026503562927,0,1,0,0.0,0,0,0,0,0,0,0.0
6,3.0192549228668213,0.0,0,0.0,0.0,0,,3.717747926712036,0.0,0,0,0.0,0,0,0,0,,0.5039786696434021,0,0,0,0.0,0,0,0,0,0,0,0.0
7,3.6177902221679688,0.8496395349502563,0,0.0,0.019013306125998497,0,,3.717747926712036,0.0,0,0,1.7464529275894165,1,0,0,0,,0.5034880042076111,1,0,0,0.0,0,0,0,0,0,0,0.0
8,4.2166430950164795,0.3775612413883209,0,0.0,0.07213632762432098,0,,3.717747926712036,0.0,0,0,0.41661515831947327,1,0,0,0,,0.5040000081062317,0,1,0,0.0,0,0,0,0,0,0,0.0
9,4.815044403076172,0.0,0,0.0,0.0,0,,3.717747926712036,0.0,0,0,0.0,0,0,0,0,,0.5033599734306335,0,0,0,0.0,0,0,0,0,0,0,0.0
10,5.413506507873535,0.0,0,0.0,0.0,0,,3.717747926712036,0.0,0,0,0.0,0,0,0,0,,0.5038506388664246,0,0,0,0.0,0,0,0,0,0,0,0.0
11,6.011998653411865,0.0,0,0.0,0.0,0,,3.717747926712036,0.0,0,0,0.0,0,0,0,0,,0.5033599734306335,0,0,0,0.0,0,0,0,0,0,0,0.0
12,6.610888481140137,0.0,0,0.0,0.0,0,,3.717747926712036,0.0,0,0,0.0,0,0,0,0,,0.5043200254440308,0,0,0,0.0,0,0,0,0,0,0,0.0
13,7.209058523178101,0.3671855032444,0,0.0,0.12556152045726776,0,,3.717747926712036,0.0,1,0,0.3802441656589508,1,0,0,0,,0.5034026503562927,0,0,0,0.0,0,0,0,0,0,0,7.666666666666667
14,7.81758975982666,0.19935724139213562,0,0.0,0.19382429122924805,0,,3.717747926712036,0.0,0,0,0.19936074316501617,1,0,0,0,,0.5039573311805725,0,0,0,0.0,0,0,0,0,0,1,0.0
15,8.417817831039429,0.3986469507217407,0,0.0,0.3875829577445984,0,,3.717747926712036,0.0,0,0,0.3986539840698242,2,0,0,0,,0.5040426850318909,0,0,0,0.0,0,0,0,0,0,2,0.0
16,9.02491569519043,0.6829285621643066,0,0.0,0.40333908796310425,0,,3.717747926712036,0.0,0,0,0.6874533891677856,1,0,1,0,,0.5040640234947205,0,0,0,0.0,0,0,0,0,0,0,0.0
17,9.623286008834839,0.0,0,0.0,0.0,0,,3.717747926712036,0.0,0,0,0.0,0,0,0,0,,0.5033173561096191,0,0,0,0.0,0,0,0,0,0,0,0.0
18,10.222082138061523,2.263488292694092,0,0.0,1.8922027349472046,0,,3.7266626358032227,5.666666666666667,0,0,2.268225908279419,8,0,1,0,,0.5039573311805725,0,0,0,0.0,0,0,1,0,0,6,0.0
19,10.820682048797607,0.0,0,0.0,0.0,0,,3.7266626358032227,0.0,0,0,0.0,0,0,0,0,,0.5033813118934631,0,0,0,0.0,0,0,0,0,0,0,0.0
20,11.419109582901001,0.5967168211936951,0,0.0,0.580155611038208,0,,3.7266626358032227,0.0,0,0,0.5967273712158203,3,0,0,0,,0.5038933157920837,0,0,0,0.0,0,0,0,0,0,3,0.0
21,12.017848253250122,5.225439071655273,0,0.0,4.724385738372803,0,,3.737938404083252,6.0,0,0,5.230412006378174,22,0,1,0,,0.5036159753799438,0,0,0,0.0,0,0,2,0,0,19,0.0
22,12.617738723754883,3.224060535430908,0,0.0,2.7804455757141113,0,,3.755052089691162,5.666666666666667,0,0,3.2289724349975586,12,0,1,0,,0.5040000081062317,0,0,0,0.0,0,0,2,0,0,9,0.0
23,13.216308116912842,3.415910243988037,0,0.0,2.967541217803955,0,,3.7655725479125977,6.0,0,0,3.4208173751831055,13,0,1,0,,0.5034026503562927,0,0,0,0.0,0,0,2,0,0,10,0.0
24,13.826109409332275,1.7457711696624756,0,0.0,1.6019530296325684,0,,3.7820351123809814,5.666666666666667,0,0,1.7461856603622437,7,0,0,0,,0.5040213465690613,0,0,0,0.0,0,0,2,0,0,5,0.0
25,14.425873041152954,0.9806730151176453,0,0.0,0.9534554481506348,0,,3.7820351123809814,0.0,0,0,0.9806903004646301,5,0,0,0,,0.5035306811332703,0,0,0,0.0,0,0,0,0,0,5,0.0
26,15.027212858200073,10.534244537353516,0,0.0,9.407662391662598,0,,3.8345794677734375,5.666666666666667,0,0,10.544500350952148,43,0,2,0,,0.5042773485183716,0,0,0,0.0,0,0,7,0,0,34,0.0
27,15.637190580368042,29.736980438232422,0,0.0,26.302902221679688,0,,3.8026607036590576,6.666666666666667,1,0,29.780160903930664,120,0,6,0,,0.5040000081062317,0,0,0,0.0,0,0,18,0,0,95,8.333333333333334
28,16.24559497833252,102.16380310058594,0,0.0,89.21048736572266,0,,4.059236526489258,5.666666666666667,6,0,103.14666748046875,426,0,18,0,,0.5044479966163635,1,0,0,0.0,0,0,86,0,0,315,7.333333333333333
29,16.84589433670044,92.0138931274414,0,0.0,79.13671875,0,,4.200961589813232,5.666666666666667,8,0,92.2103042602539,381,0,22,0,,0.5037226676940918,0,0,0,0.0,0,0,84,0,0,267,7.666666666666667
30,17.453426599502563,111.24998474121094,0,0.0,96.65885162353516,0,,4.275601387023926,5.666666666666667,4,0,111.43376159667969,480,0,31,0,,0.5038506388664246,0,0,0,0.0,0,0,87,0,0,358,7.0
31,18.06173872947693,114.2732925415039,0,0.0,101.75692749023438,0,,4.19174337387085,6.0,4,0,114.42053985595703,510,0,21,0,,0.5033173561096191,0,0,0,0.0,0,0,85,0,0,400,7.666666666666667
32,18.66128420829773,105.52509307861328,0,0.0,95.04348754882812,0,,4.270822048187256,5.666666666666667,2,0,105.62356567382812,486,0,15,0,,0.5047680139541626,0,0,0,0.0,0,0,89,0,0,380,6.333333333333333
33,19.264562368392944,144.10609436035156,0,9.666666666666666,125.85664367675781,0,,4.311490535736084,5.666666666666667,6,0,145.21975708007812,642,0,32,0,,0.5040213465690613,1,0,0,0.0,0,0,114,0,1,488,7.333333333333333
34,19.8684561252594,182.75633239746094,0,11.0,159.38778686523438,0,,4.332116603851318,5.666666666666667,7,0,183.90525817871094,796,0,37,0,,0.5049386620521545,1,0,0,0.0,0,0,182,0,1,568,8.333333333333334
35,20.471505165100098,122.48844146728516,0,0.0,105.81674194335938,1,,4.342504024505615,5.666666666666667,2,0,132.66845703125,521,0,32,0,,0.5040000081062317,0,0,0,0.0,0,0,119,0,0,367,8.333333333333334
36,21.076425790786743,81.88088989257812,0,0.0,71.74669647216797,0,,4.347716331481934,5.666666666666667,3,0,82.00415802001953,365,0,20,0,,0.5046399831771851,0,0,0,0.0,0,0,68,0,0,274,8.0
37,21.674760103225708,49.77115249633789,0,0.0,43.53969192504883,0,,4.26239013671875,6.0,0,0,52.91524124145508,223,0,12,0,,0.5039573311805725,0,0,0,10.333333333333334,0,1,32,0,0,178,0.0
38,22.274585962295532,130.16561889648438,0,0.0,114.2550277709961,0,,4.185384273529053,6.0,5,0,130.36029052734375,560,0,29,0,,0.5044479966163635,0,0,0,0.0,0,0,106,0,0,420,7.666666666666667
39,22.873712062835693,111.43485260009766,0,0.0,98.2654800415039,0,,4.147914886474609,6.0,4,0,111.61688995361328,476,0,20,0,,0.5036799907684326,0,1,0,0.0,0,0,99,0,0,352,7.333333333333333
40,23.4768009185791,129.45823669433594,0,7.666666666666667,112.58051300048828,0,,4.129431247711182,6.0,4,0,129.8132781982422,537,0,29,0,,0.5045120120048523,0,1,0,0.0,0,0,114,0,1,388,7.333333333333333
41,24.084118127822876,135.98484802246094,0,0.0,118.93975830078125,0,,4.120250701904297,6.0,3,0,136.16412353515625,556,0,29,0,,0.5038933157920837,0,0,0,0.0,0,0,133,0,0,391,6.333333333333333
42,24.68656015396118,175.64862060546875,0,7.666666666666667,150.3662872314453,0,,4.115675926208496,6.0,4,0,176.86502075195312,696,0,48,0,,0.5044479966163635,1,0,0,0.0,0,0,163,0,1,479,7.333333333333333
43,25.285614490509033,214.3413543701172,0,0.0,182.7444610595703,0,,4.355498790740967,5.333333333333333,6,0,214.81179809570312,891,0,69,0,,0.5033386945724487,0,3,0,0.0,0,0,201,0,0,612,6.666666666666667
44,25.888744831085205,120.7267074584961,0,0.0,104.63004302978516,0,,4.486205577850342,5.333333333333333,5,0,121.71491241455078,548,0,29,0,,0.5045973062515259,1,2,0,0.0,0,0,109,0,0,402,8.0
45,26.48676300048828,267.227783203125,0,0.0,229.7886199951172,0,,4.418569087982178,5.666666666666667,12,0,268.44635009765625,1150,0,75,0,,0.5034880042076111,1,0,0,0.0,0,0,258,0,0,804,7.0
46,27.084770441055298,184.83441162109375,0,8.333333333333334,159.17567443847656,0,,4.385509490966797,5.666666666666667,7,0,185.29527282714844,790,0,50,0,,0.5034239888191223,0,1,0,0.0,0,0,181,0,1,550,8.0
47,27.68204140663147,170.79983520507812,0,0.0,146.89248657226562,0,,4.36916446685791,5.666666666666667,9,0,171.14395141601562,728,0,47,0,,0.5031039714813232,0,1,0,0.0,0,0,162,0,0,509,7.0
48,28.281413078308105,204.4677276611328,0,0.0,177.9929962158203,0,,4.493443489074707,5.333333333333333,7,0,204.76544189453125,904,0,49,0,,0.5044053196907043,0,0,0,0.0,0,0,222,0,0,626,6.666666666666667
49,28.87961173057556,251.68011474609375,0,0.0,212.90399169921875,0,,4.558272838592529,5.333333333333333,17,0,252.2517852783203,1078,0,85,0,,0.5035733580589294,0,1,0,0.0,0,0,259,0,0,716,7.0
50,29.47826647758484,211.42056274414062,0,0.0,179.8966827392578,0,,4.453241348266602,5.666666666666667,10,0,211.8223114013672,884,0,67,0,,0.5041279792785645,0,0,0,0.0,0,0,226,0,0,581,6.666666666666667
51,30.0767240524292,175.01718139648438,0,0.0,147.61660766601562,0,,4.402519702911377,5.666666666666667,9,0,176.9053192138672,726,0,55,0,,0.5034880042076111,2,1,0,0.0,0,0,172,0,0,487,6.666666666666667
52,30.67732858657837,195.25457763671875,0,0.0,168.35446166992188,0,,4.377590179443359,5.666666666666667,7,0,195.580810546875,834,0,56,0,,0.5048320293426514,0,0,0,0.0,0,0,188,0,0,583,7.666666666666667
53,31.275519847869873,213.3553009033203,0,0.0,182.6241455078125,0,,4.365231037139893,5.666666666666667,16,0,213.79806518554688,902,0,59,0,,0.5038080215454102,0,0,0,0.0,0,0,207,0,0,620,7.666666666666667
54,31.876511335372925,183.23204040527344,0,0.0,157.61538696289062,0,,4.49136209487915,5.333333333333333,2,0,184.27944946289062,785,0,49,0,,0.5042986869812012,1,2,0,0.0,0,0,210,0,0,521,8.0
55,32.47491931915283,356.11102294921875,0,10.0,293.8092346191406,0,,4.4210686683654785,5.666666666666667,17,0,358.1571960449219,1393,0,140,0,,0.5035306811332703,1,4,0,0.0,0,0,381,0,3,847,7.666666666666667
56,33.08044981956482,259.994873046875,0,0.0,221.06756591796875,0,,4.386740684509277,5.666666666666667,14,0,260.5059814453125,1070,0,80,0,,0.5035093426704407,0,0,0,0.0,0,0,274,0,0,702,6.666666666666667
57,33.67766189575195,179.87278747558594,0,0.0,153.8509979248047,0,,4.502720832824707,5.333333333333333,4,0,180.17556762695312,770,0,61,0,,0.5028480291366577,0,0,0,0.0,0,0,177,0,0,528,6.0
58,34.27660322189331,299.5759582519531,0,0.0,251.9236297607422,0,,4.426564693450928,5.666666666666667,14,0,300.1936340332031,1208,0,107,0,,0.5035520195960999,0,0,0,0.0,0,0,323,0,0,764,8.0
59,34.87482047080994,316.68243408203125,0,0.0,262.8615417480469,0,,4.52360725402832,5.333333333333333,17,0,318.17352294921875,1282,0,129,0,,0.5028266906738281,1,1,0,0.0,0,0,330,0,0,804,8.333333333333334
60,35.47445869445801,231.64013671875,0,7.666666666666667,196.10443115234375,0,,4.436633586883545,5.666666666666667,9,0,235.1562042236328,961,0,75,0,,0.5043626427650452,0,0,0,10.333333333333334,0,1,243,0,1,632,7.0
61,36.07399010658264,286.8852233886719,0,0.0,238.82228088378906,0,,4.528858661651611,5.333333333333333,18,0,287.57501220703125,1160,0,110,0,,0.5034666657447815,0,1,0,0.0,0,0,323,0,0,708,7.666666666666667
62,36.67394495010376,223.2159423828125,0,0.0,189.4199676513672,0,,4.576424598693848,5.333333333333333,8,0,223.62347412109375,945,0,76,0,,0.50408536195755,0,0,0,0.0,0,0,254,0,0,607,7.333333333333333
63,37.27245211601257,204.68948364257812,0,0.0,172.8647003173828,0,,4.600584506988525,5.333333333333333,19,0,205.19418334960938,882,0,64,0,,0.5037013292312622,0,1,0,0.0,0,0,226,0,0,572,7.333333333333333
64,37.8726532459259,278.30694580078125,0,0.0,232.0611114501953,0,,4.612760066986084,5.333333333333333,18,0,278.97412109375,1156,0,108,0,,0.5044693350791931,0,1,0,0.0,0,0,314,0,0,715,7.333333333333333
65,38.47102737426758,260.2395935058594,0,0.0,222.3090057373047,0,,4.479085922241211,5.666666666666667,5,0,260.66552734375,1095,0,86,0,,0.5035306811332703,0,0,0,0.0,0,0,276,0,0,728,7.666666666666667
66,39.07212591171265,325.1669616699219,0,8.333333333333334,274.4869079589844,0,,4.415112495422363,5.666666666666667,20,0,326.1136779785156,1328,0,100,0,,0.5040000081062317,0,1,0,0.0,0,0,362,0,2,843,7.333333333333333
67,39.67058777809143,277.5378723144531,0,0.0,230.005615234375,1,,4.517620086669922,5.333333333333333,15,0,287.79766845703125,1106,0,110,0,,0.5034666657447815,0,0,0,0.0,0,0,315,0,0,665,7.0
68,40.270402669906616,177.90277099609375,0,0.0,154.19949340820312,0,,4.570679664611816,5.333333333333333,8,0,178.19261169433594,800,0,47,0,,0.50408536195755,0,0,0,0.0,0,0,185,0,0,560,7.0
69,40.86875319480896,191.83255004882812,0,0.0,164.94711303710938,0,,4.597679615020752,5.333333333333333,6,0,192.2110137939453,859,0,60,0,,0.5035306811332703,0,2,0,0.0,0,0,186,0,0,605,8.0
70,41.469144344329834,304.7735900878906,0,0.0,254.12054443359375,0,,4.61129903793335,5.333333333333333,18,0,306.22564697265625,1267,0,115,0,,0.5042986869812012,1,2,0,0.0,0,0,347,0,0,784,7.0
71,42.06757712364197,324.9552307128906,0,7.666666666666667,270.72344970703125,0,,4.618139266967773,5.333333333333333,25,0,325.8667907714844,1346,0,119,0,,0.5037440061569214,0,1,0,0.0,0,0,383,0,1,817,7.333333333333333
72,42.67234253883362,254.19140625,0,0.0,212.18524169921875,0,,4.621567249298096,5.333333333333333,20,0,254.7903289794922,1056,0,93,0,,0.5042133331298828,0,0,0,0.0,0,0,301,0,0,642,7.666666666666667
73,43.283318281173706,206.44390869140625,0,11.666666666666666,174.5200958251953,0,,4.483233451843262,5.666666666666667,8,0,206.978515625,850,0,67,0,,0.5036799907684326,0,1,0,0.0,0,0,237,0,1,536,7.666666666666667
74,43.882607221603394,180.2030792236328,0,0.0,154.51536560058594,0,,4.417126655578613,5.666666666666667,12,0,180.61570739746094,774,0,48,0,,0.5036159753799438,0,2,0,0.0,0,0,179,0,0,533,7.333333333333333
75,44.48108768463135,221.97409057617188,0,0.0,188.0576171875,0,,4.384799003601074,5.666666666666667,15,0,222.45867919921875,921,0,73,0,,0.5031893253326416,0,0,0,0.0,0,0,210,0,0,623,7.0
76,45.080387353897095,174.27728271484375,0,0.0,150.6210479736328,0,,4.501698017120361,5.333333333333333,9,0,175.3253173828125,767,0,39,0,,0.5044266581535339,1,1,0,0.0,0,0,195,0,0,522,7.0
77,45.67907094955444,279.9147033691406,0,7.666666666666667,234.2794647216797,0,,4.562516212463379,5.333333333333333,13,0,282.084716796875,1162,0,99,0,,0.5038933157920837,2,1,0,0.0,0,0,315,0,1,731,7.666666666666667
78,46.2790322303772,254.01409912109375,0,0.0,211.58822631835938,0,,4.593545913696289,5.333333333333333,13,0,254.5764923095703,1042,0,103,0,,0.5047680139541626,0,0,0,0.0,0,0,287,0,0,639,6.666666666666667
79,46.87758541107178,254.8997344970703,0,0.0,215.68399047851562,0,,4.47000789642334,5.666666666666667,13,0,255.4098663330078,1054,0,85,0,,0.5034026503562927,0,0,0,0.0,0,0,277,0,0,679,6.666666666666667
80,47.478052854537964,193.6099853515625,0,0.0,164.91973876953125,0,,4.546183109283447,5.333333333333333,9,0,194.6982421875,838,0,61,0,,0.5044479966163635,1,0,0,0.0,0,0,201,0,0,566,7.666666666666667
81,48.078752279281616,204.29537963867188,0,7.666666666666667,173.24130249023438,0,,4.447463512420654,5.666666666666667,8,0,205.7107696533203,857,0,60,0,,0.5034880042076111,1,2,0,0.0,0,0,217,0,2,567,7.0
82,48.67895722389221,212.57919311523438,0,0.0,182.1708526611328,0,,4.534494876861572,5.333333333333333,8,0,212.9765167236328,923,0,65,0,,0.5042133331298828,0,1,0,0.0,0,0,223,0,0,626,7.666666666666667
83,49.27671694755554,254.22023010253906,0,0.0,214.9910430908203,0,,4.441863536834717,5.666666666666667,14,0,254.7751922607422,1052,0,85,0,,0.5028053522109985,0,1,0,0.0,0,0,261,0,0,691,7.333333333333333
84,49.87551975250244,274.4181823730469,0,9.0,229.54209899902344,0,,4.531581878662109,5.333333333333333,15,0,275.8563232421875,1127,0,99,0,,0.503658652305603,1,0,0,0.0,0,0,306,0,1,705,7.0
85,50.487046241760254,308.83648681640625,0,0.0,259.0182189941406,0,,4.57781457901001,5.333333333333333,12,0,309.4862976074219,1273,0,117,0,,0.5035093426704407,0,1,0,0.0,0,0,354,0,0,789,7.0
86,51.08819389343262,293.8606262207031,0,0.0,245.98553466796875,0,,4.601285934448242,5.333333333333333,17,0,294.5553894042969,1222,0,108,0,,0.5040640234947205,0,2,0,0.0,0,0,340,0,0,755,8.0
87,51.69707798957825,315.94464111328125,0,0.0,263.69635009765625,0,,4.613112449645996,5.333333333333333,17,0,316.715087890625,1304,0,119,0,,0.5037866830825806,0,3,0,0.0,0,0,373,0,0,792,7.333333333333333
88,52.30206656455994,274.2221374511719,0,7.666666666666667,227.0424041748047,0,,4.619048118591309,5.333333333333333,16,0,275.0877380371094,1126,0,110,0,,0.5043626427650452,0,4,0,0.0,0,0,313,0,1,682,7.666666666666667
89,52.90167951583862,389.0379333496094,0,5.666666666666667,316.09417724609375,0,,4.622021675109863,5.333333333333333,28,0,390.2395935058594,1530,0,188,0,,0.5038506388664246,0,1,0,0.0,0,0,433,0,1,879,7.666666666666667
90,53.50148391723633,390.7592468261719,0,0.0,316.7840881347656,0,,4.623510837554932,5.333333333333333,33,0,391.8789367675781,1512,0,182,0,,0.5039573311805725,0,1,0,0.0,0,0,477,0,0,819,6.666666666666667
91,54.108718395233154,471.64898681640625,0,0.0,379.96429443359375,0,,4.484148025512695,5.666666666666667,42,0,473.85028076171875,1755,0,216,0,,0.5038719773292542,1,3,0,0.0,0,0,558,0,0,935,7.333333333333333
92,54.71286368370056,491.0577392578125,0,5.666666666666667,394.9408264160156,0,,4.417571067810059,5.666666666666667,43,0,493.46185302734375,1805,0,226,0,,0.5047893524169922,1,3,0,0.0,0,0,560,0,1,971,7.0
93,55.31255102157593,461.9720153808594,0,8.333333333333334,377.0076599121094,0,,4.518906116485596,5.333333333333333,30,0,464.73687744140625,1759,0,192,0,,0.5039573311805725,2,1,0,0.0,0,0,584,0,1,949,8.0
94,55.916327238082886,438.3675231933594,0,0.0,360.6996154785156,0,,4.434371471405029,5.666666666666667,28,0,439.502197265625,1682,0,178,0,,0.5047893524169922,0,2,0,0.0,0,0,511,0,0,963,7.333333333333333
95,56.51959466934204,416.37322998046875,0,0.0,342.7713317871094,0,,4.393279075622559,5.666666666666667,34,0,417.5,1583,0,156,0,,0.5040000081062317,0,2,0,0.0,0,0,499,0,0,892,6.666666666666667
96,57.124592781066895,351.7086181640625,0,0.0,294.08502197265625,0,,4.373017311096191,5.666666666666667,23,0,352.57281494140625,1399,0,124,0,,0.5046613216400146,0,2,0,0.0,0,0,374,0,0,876,7.666666666666667
97,57.724326610565186,314.9360656738281,0,0.0,256.6004943847656,0,,4.495480060577393,5.333333333333333,29,0,315.8154296875,1200,0,134,0,,0.5040000081062317,0,0,0,0.0,0,0,378,0,0,659,7.0
98,58.32740330696106,291.07452392578125,0,3.0,240.492919921875,0,,4.559320449829102,5.333333333333333,17,0,292.63824462890625,1180,0,121,0,,0.5039573311805725,1,1,0,0.0,0,0,311,0,1,728,7.666666666666667
99,58.92532444000244,422.664794921875,0,0.0,343.5128479003906,0,,4.453741550445557,5.666666666666667,38,0,423.9246826171875,1597,0,184,0,,0.5030826926231384,0,2,0,0.0,0,0,480,0,0,893,7.333333333333333
100,59.53317737579346,436.2367858886719,0,0.0,354.9865417480469,0,,4.402764797210693,5.666666666666667,34,0,438.9136657714844,1626,0,183,0,,0.5038933157920837,2,0,0,0.0,0,0,509,0,0,898,7.0
101,60.13185477256775,372.3202209472656,0,0.0,308.3128356933594,0,,4.5111470222473145,5.333333333333333,21,0,373.18914794921875,1451,0,142,0,,0.5038506388664246,0,1,0,0.0,0,0,473,0,0,814,6.333333333333333
102,60.73333430290222,419.63409423828125,0,0.0,340.8695983886719,0,,4.567363739013672,5.333333333333333,29,0,420.8447265625,1619,0,197,0,,0.5043626427650452,0,3,0,0.0,0,0,486,0,0,904,7.666666666666667
103,61.331459760665894,358.03570556640625,0,0.0,296.06787109375,0,,4.596001148223877,5.333333333333333,31,0,359.7047424316406,1442,0,130,0,,0.50327467918396,1,2,0,0.0,0,0,449,0,0,829,6.666666666666667
104,61.92967891693115,318.4184875488281,0,0.0,262.49005126953125,1,,4.610454559326172,5.333333333333333,16,0,329.3662109375,1270,0,125,0,,0.5035946369171143,1,3,0,0.0,0,0,401,0,0,723,6.666666666666667
105,62.529935359954834,348.7649841308594,0,8.333333333333334,286.3944396972656,0,,4.477998733520508,5.666666666666667,24,0,349.85235595703125,1355,0,143,0,,0.5033173561096191,0,3,0,0.0,0,0,396,0,1,788,6.666666666666667
