Counter,Time,Bin 13,PM2.5,Bin 14,Bin 10,Bin 5,Bin 9,PM10,Bin 12,Bin 6,Sampling Period,Bin 0,SFR,Bin7 MToF,Bin1 MToF,Temperature,Bin 15,Bin5 MToF,Bin 3,PM1,Bin 4,Bin 2,Bin 1,Bin 7,Checksum,Bin 8,Bin 11,Pressure,Bin3 MToF
1,0.0001404285430908203,0,0.024978600442409515,0,0,0,0,0.02508596144616604,0,0,44.29525375366211,2,3.6484384536743164,0.0,7.0,,0,0.0,0,0.01767834462225437,0,2,1,0,5,0,0,,0.0
2,0.6008832454681396,0,1.994188904762268,0,0,0,0,2.0036308765411377,0,0,0.5045973062515259,1,3.6404430866241455,0.0,7.666666666666667,,0,0.0,0,1.35758376121521,0,2,1,0,4,0,0,,0.0
3,1.198756217956543,0,2.1929938793182373,0,0,0,0,2.2024197578430176,0,0,0.5034666657447815,2,3.656151056289673,0.0,5.0,,0,0.0,0,1.5520687103271484,0,2,1,0,5,0,0,,0.0
4,1.807248592376709,0,0.5756278038024902,0,0,0,0,0.5888943672180176,0,0,0.5040000081062317,1,3.656151056289673,0.0,0.0,,0,0.0,1,0.32459864020347595,0,0,0,0,2,0,0,,5.666666666666667
5,2.4057419300079346,0,1.5698169469833374,0,0,0,0,1.5837692022323608,0,0,0.5034453272819519,0,3.6410727500915527,0.0,7.333333333333333,,0,0.0,1,1.141204595565796,0,0,3,0,4,0,0,,5.666666666666667
6,3.0042123794555664,0,1.0976814031600952,0,0,0,0,1.102519154548645,0,0,0.5039786696434021,0,3.6332292556762695,0.0,7.666666666666667,,0,0.0,0,0.7508324980735779,0,1,1,0,2,0,0,,0.0
7,3.602684259414673,0,1.3186469078063965,0,0,1,0,1.483492136001587,0,0,0.5034453272819519,2,3.6332292556762695,0.0,0.0,,0,14.333333333333334,1,0.5722349882125854,0,0,0,0,4,0,0,,19.0
8,4.203030109405518,0,1.4810755252838135,0,0,0,0,1.4990469217300415,0,0,0.5043626427650452,2,3.6332292556762695,0.0,0.0,,0,0.0,1,0.9370629191398621,0,1,0,0,4,0,0,,16.333333333333332
9,4.8103508949279785,0,0.6026573777198792,0,0,0,0,0.6028677821159363,0,0,0.5040426850318909,1,3.6332292556762695,0.0,16.333333333333332,,0,0.0,0,0.5362974405288696,0,0,1,0,2,0,0,,0.0
10,5.410090208053589,0,2.094761610031128,0,0,0,0,2.108640670776367,0,0,0.5044693350791931,0,3.6332292556762695,0.0,0.0,,0,0.0,0,1.2371708154678345,0,3,0,0,3,0,0,,0.0
11,6.0085203647613525,0,3.1237881183624268,0,0,0,0,3.1694016456604004,0,0,0.5039786696434021,4,3.602633476257324,0.0,8.0,,0,0.0,0,2.3135130405426025,1,1,3,0,9,0,0,,0.0
12,6.611037015914917,0,2.496525287628174,0,0,1,0,2.6566219329833984,0,0,0.5045760273933411,2,3.54441237449646,0.0,10.333333333333334,,0,15.666666666666666,0,1.568701148033142,0,1,2,0,6,0,0,,0.0
13,7.209350824356079,0,0.20912428200244904,0,0,0,0,0.2091279774904251,0,0,0.5039146542549133,1,3.54441237449646,0.0,0.0,,0,0.0,0,0.20332027971744537,0,0,0,0,1,0,0,,0.0
14,7.824506521224976,0,2.3787944316864014,0,0,0,0,2.3839986324310303,0,0,0.5038293600082397,4,3.5328290462493896,0.0,7.666666666666667,,0,0.0,0,1.9362359046936035,0,1,2,0,7,0,0,,0.0
15,8.425606727600098,0,2.4322404861450195,0,0,0,0,3.422287702560425,0,1,0.5032960176467896,2,3.5328290462493896,0.0,0.0,,0,0.0,0,0.9296085834503174,1,1,0,0,5,0,0,,0.0
16,9.025032758712769,0,1.573981761932373,0,0,1,0,1.7704763412475586,0,0,0.5045760273933411,3,3.5328290462493896,0.0,0.0,,0,15.0,0,0.734897255897522,1,0,0,0,5,0,0,,0.0
17,9.623376846313477,0,2.826660394668579,0,0,0,0,2.832150459289551,0,0,0.5039573311805725,4,3.4848697185516357,0.0,9.0,,0,0.0,0,2.314831256866455,0,1,3,0,8,0,0,,0.0
18,10.225515604019165,0,3.122164487838745,0,0,0,0,3.1457393169403076,0,0,0.5043839812278748,6,3.4848697185516357,0.0,0.0,,0,0.0,1,2.2333412170410156,0,2,0,0,9,0,0,,17.0
19,10.828304767608643,0,3.7934203147888184,0,0,0,0,3.80334210395813,0,0,0.5038293600082397,9,3.4801266193389893,0.0,7.666666666666667,,0,0.0,0,3.0791759490966797,0,2,1,0,12,0,0,,0.0
20,11.431615352630615,0,4.5705060958862305,0,0,0,0,4.5812249183654785,0,0,0.5047253370285034,8,3.3544015884399414,0.0,12.666666666666666,,0,0.0,0,3.705618143081665,0,2,3,0,13,0,0,,0.0
21,12.03015947341919,0,3.7218921184539795,0,0,0,0,3.7804465293884277,0,0,0.50408536195755,11,3.3224549293518066,0.0,11.666666666666666,,0,0.0,1,2.9757239818573,1,0,1,0,14,0,0,,11.666666666666666
22,12.63252329826355,0,6.7815937995910645,0,0,1,0,6.957356929779053,0,0,0.5046399831771851,19,3.3206770420074463,0.0,7.666666666666667,,0,11.666666666666666,0,5.439887046813965,0,2,1,0,23,0,0,,0.0
23,13.234822273254395,0,10.844534873962402,0,0,0,0,14.941210746765137,0,0,0.5041279792785645,21,3.2710976600646973,23.666666666666668,8.666666666666666,,0,0.0,1,8.022942543029785,1,2,6,1,32,0,0,,11.0
24,13.836600065231323,0,10.296186447143555,0,0,0,0,10.318464279174805,0,0,0.5039786696434021,21,3.2016665935516357,0.0,9.666666666666666,,0,0.0,0,8.517973899841309,0,4,5,0,30,0,0,,0.0
25,14.43604588508606,0,14.954056739807129,0,0,0,0,14.9776029586792,0,0,0.5031893253326416,42,3.025425434112549,0.0,12.0,,0,0.0,1,13.515728950500488,0,1,7,0,51,0,0,,10.333333333333334
26,15.046662092208862,0,18.132841110229492,0,0,0,0,18.152793884277344,0,0,0.5045120120048523,43,2.8936357498168945,0.0,11.0,,0,0.0,0,16.065523147583008,0,3,9,0,55,0,0,,0.0
27,15.64485764503479,0,14.107015609741211,0,0,0,0,14.108835220336914,0,0,0.5037866830825806,41,2.7712180614471436,0.0,12.666666666666666,,0,0.0,0,13.324854850769043,0,0,6,0,47,0,0,,0.0
28,16.24486207962036,0,30.75035285949707,0,0,0,0,30.780643463134766,0,0,0.5048533082008362,62,2.7150495052337646,0.0,9.666666666666666,,0,0.0,0,27.211637496948242,0,4,19,0,85,0,0,,0.0
29,16.850861072540283,0,34.53163146972656,0,0,0,0,34.570064544677734,0,0,0.5039786696434021,65,2.601821184158325,0.0,10.666666666666666,,0,0.0,0,30.324445724487305,0,5,20,0,90,0,0,,0.0
30,17.457002878189087,0,25.685951232910156,0,0,0,0,25.767715454101562,0,0,0.5045120120048523,58,2.4733386039733887,0.0,13.666666666666666,,0,0.0,0,22.77317237854004,1,3,8,0,70,0,0,,0.0
31,18.055405616760254,0,40.79432678222656,0,0,0,0,40.850624084472656,0,0,0.5039146542549133,87,2.6115870475769043,0.0,7.333333333333333,,0,0.0,0,35.656986236572266,0,8,15,0,110,0,0,,0.0
32,18.656577587127686,0,34.827884674072266,0,0,0,0,34.8714714050293,0,0,0.5045973062515259,82,2.4989261627197266,0.0,12.0,,0,0.0,1,31.4907283782959,0,3,12,0,98,0,0,,29.0
33,19.258835315704346,0,39.34060287475586,0,0,0,0,39.36661911010742,0,0,0.5040213465690613,87,2.5320916175842285,0.0,9.333333333333334,,0,0.0,0,35.74740982055664,0,3,19,0,109,0,0,,0.0
34,19.865127325057983,0,52.47468948364258,0,0,0,0,52.535545349121094,0,0,0.5038293600082397,110,2.512491464614868,0.0,10.0,,0,0.0,1,46.95182800292969,0,5,25,0,141,0,0,,16.333333333333332
35,20.463681936264038,0,52.9178581237793,0,0,0,0,53.078128814697266,0,0,0.5033386945724487,105,2.5773842334747314,0.0,9.0,,0,0.0,3,45.9409065246582,1,6,26,0,141,0,0,,9.0
36,21.075501918792725,0,56.425819396972656,0,0,0,0,57.76297378540039,0,1,0.5033386945724487,123,2.5978620052337646,0.0,9.333333333333334,,0,0.0,1,49.93279266357422,0,4,28,0,157,0,0,,9.0
37,21.67690134048462,0,74.3287582397461,0,0,0,0,74.46765899658203,0,0,0.5032320022583008,129,2.3567662239074707,0.0,12.0,,0,0.0,0,65.18112182617188,1,9,38,0,177,0,0,,0.0
38,22.278231859207153,0,56.39420700073242,0,0,0,0,56.431419372558594,0,0,0.5039359927177429,114,2.4748823642730713,0.0,9.0,,0,0.0,0,51.003273010253906,0,4,31,0,149,0,0,,0.0
39,22.878944635391235,0,69.96282196044922,0,0,0,0,70.04073333740234,0,0,0.5033173561096191,150,2.3899285793304443,0.0,11.333333333333334,,0,0.0,0,62.373809814453125,0,10,21,0,181,0,0,,0.0
40,23.485660791397095,0,70.93260955810547,0,0,0,0,71.04505157470703,0,0,0.5044053196907043,132,2.253573417663574,0.0,12.333333333333334,,0,0.0,2,62.605430603027344,0,8,27,0,169,0,0,,12.333333333333334
41,24.091467142105103,0,87.7351303100586,0,0,0,0,87.8227310180664,0,0,0.5037866830825806,169,2.2245397567749023,0.0,11.333333333333334,,0,0.0,1,79.02417755126953,0,7,35,0,212,0,0,,17.0
42,24.69556212425232,0,87.8208236694336,0,0,0,0,87.89973449707031,0,0,0.5038506388664246,174,2.2848727703094482,0.0,10.333333333333334,,0,0.0,1,79.46138763427734,0,6,38,0,219,0,0,,15.0
43,25.3007550239563,0,83.875,0,0,0,0,84.04895782470703,0,0,0.5084159970283508,146,2.445084571838379,0.0,9.0,,0,0.0,3,71.75670623779297,0,15,39,0,203,0,0,,12.666666666666666
44,25.900599718093872,0,94.43376159667969,0,0,1,0,94.79991912841797,0,0,0.504149317741394,205,2.4866526126861572,0.0,9.666666666666666,,0,11.666666666666666,1,84.31935119628906,1,8,40,0,256,0,0,,18.333333333333332
45,26.50167679786682,0,104.30162811279297,0,0,0,0,104.42876434326172,0,0,0.5037226676940918,200,2.3813674449920654,0.0,11.0,,0,0.0,0,91.78530883789062,0,16,41,0,257,0,0,,0.0
46,27.10133385658264,0,95.18953704833984,0,0,0,0,95.35469055175781,0,0,0.504149317741394,185,2.2718963623046875,0.0,11.666666666666666,,0,0.0,1,84.91283416748047,1,9,37,0,233,0,0,,9.666666666666666
47,27.69965672492981,0,100.15972900390625,0,0,0,0,100.24931335449219,0,0,0.5034880042076111,207,2.492826223373413,0.0,8.666666666666666,,0,0.0,0,89.69551086425781,0,11,47,0,265,0,0,,0.0
48,28.29952836036682,0,100.7371826171875,0,0,0,0,100.84144592285156,0,0,0.504149317741394,220,2.651747226715088,0.0,8.666666666666666,,0,0.0,2,90.56311798095703,0,8,56,0,286,0,0,,9.666666666666666
49,28.89784574508667,0,106.234619140625,0,0,0,0,111.22953033447266,0,0,0.5034453272819519,208,2.7421698570251465,33.0,8.666666666666666,,0,0.0,3,90.7416000366211,0,19,56,1,287,0,0,,13.666666666666666
50,29.49643850326538,0,109.90055847167969,0,0,0,0,110.07502746582031,0,0,0.5040426850318909,200,2.46724534034729,0.0,11.0,,0,0.0,2,97.5972671508789,1,8,68,0,279,0,0,,9.333333333333334
51,30.09485363960266,0,103.33264923095703,0,0,0,0,103.47789764404297,0,0,0.5034453272819519,204,2.404845952987671,0.0,10.666666666666666,,0,0.0,1,90.79940032958984,0,16,38,0,259,0,0,,14.333333333333334
52,30.700098514556885,0,124.20208740234375,0,0,0,0,125.77747344970703,0,1,0.5043626427650452,235,2.3610706329345703,0.0,10.666666666666666,,0,0.0,2,108.63758850097656,0,15,52,0,305,0,0,,12.333333333333334
53,31.30076837539673,0,114.5895004272461,0,0,0,0,114.72433471679688,0,0,0.5034026503562927,233,2.5748674869537354,0.0,8.666666666666666,,0,0.0,1,101.42572021484375,0,15,57,0,306,0,0,,22.333333333333332
54,31.899397134780884,0,121.54766845703125,0,0,0,0,122.9764175415039,0,1,0.5041066408157349,257,2.607548236846924,0.0,9.333333333333334,,0,0.0,2,106.85090637207031,0,15,57,0,332,0,0,,8.333333333333334
55,32.509037256240845,0,135.73892211914062,0,0,0,0,136.01812744140625,0,0,0.5036159753799438,286,2.672485828399658,0.0,9.0,,0,0.0,6,119.3917236328125,1,15,71,0,379,0,0,,14.333333333333334
56,33.11921739578247,0,120.99505615234375,0,0,0,0,121.17162322998047,0,0,0.5043839812278748,239,2.6575889587402344,0.0,9.333333333333334,,0,0.0,3,106.15872955322266,0,16,69,0,327,0,0,,10.333333333333334
57,33.717846155166626,0,142.2897186279297,0,0,0,0,142.50579833984375,0,0,0.5038933157920837,296,2.5585711002349854,0.0,10.0,,0,0.0,3,127.07026672363281,1,12,75,0,387,0,0,,12.333333333333334
58,34.31762766838074,0,130.2230224609375,0,0,0,0,130.4639129638672,0,0,0.5044693350791931,244,2.4698610305786133,0.0,10.333333333333334,,0,0.0,2,113.8180160522461,1,18,63,0,328,0,0,,15.333333333333334
59,34.9238395690918,0,135.2246856689453,0,0,0,0,135.46522521972656,0,0,0.5039573311805725,272,2.4682629108428955,0.0,10.0,,0,0.0,0,120.08966064453125,2,15,63,0,352,0,0,,0.0
60,35.52586317062378,0,151.1441650390625,0,0,0,0,156.31614685058594,0,0,0.5042133331298828,267,2.7417259216308594,11.666666666666666,8.0,,0,0.0,9,128.47674560546875,1,21,101,1,400,0,0,,8.333333333333334
61,36.12502098083496,0,155.6671600341797,0,0,0,0,155.93223571777344,0,0,0.5035946369171143,299,2.643315076828003,0.0,9.666666666666666,,0,0.0,3,136.3351287841797,1,20,92,0,415,0,0,,10.666666666666666
62,36.726935386657715,0,151.06195068359375,0,0,0,0,151.3029327392578,0,0,0.5045760273933411,308,2.596712112426758,0.0,9.666666666666666,,0,0.0,4,134.3131561279297,1,13,86,0,412,0,0,,13.333333333333334
63,37.32514047622681,0,154.13673400878906,0,0,0,0,154.35519409179688,0,0,0.5036799907684326,274,2.4463791847229004,0.0,10.666666666666666,,0,0.0,1,136.07760620117188,1,16,90,0,382,0,0,,9.0
64,37.92524218559265,0,133.92208862304688,0,0,0,0,139.09341430664062,0,0,0.5034880042076111,279,2.6311678886413574,11.0,8.666666666666666,,0,0.0,2,117.74219512939453,0,16,68,1,366,0,0,,11.333333333333334
65,38.5342972278595,0,155.35543823242188,0,0,0,0,155.52015686035156,0,0,0.5034239888191223,330,2.4615633487701416,0.0,10.666666666666666,,0,0.0,3,140.0576629638672,0,12,71,0,416,0,0,,12.333333333333334
66,39.14562773704529,0,177.30502319335938,0,0,1,0,177.91688537597656,0,0,0.5042133331298828,359,2.593661069869995,0.0,9.0,,0,9.0,7,154.90335083007812,2,20,89,0,478,0,0,,9.666666666666666
67,39.75649333000183,0,173.18173217773438,0,0,0,0,190.6095428466797,0,0,0.5035733580589294,335,2.5285701751708984,0.0,10.0,,0,0.0,2,151.37057495117188,0,23,86,0,447,1,0,,19.0
68,40.367751359939575,0,174.9805145263672,0,0,1,0,175.42149353027344,0,0,0.5042346715927124,344,2.5400943756103516,0.0,9.666666666666666,,0,10.333333333333334,3,154.03884887695312,0,21,90,0,459,0,0,,9.666666666666666
69,40.9661328792572,0,175.01123046875,0,0,0,0,175.21241760253906,0,0,0.5035733580589294,351,2.636605739593506,0.0,9.0,,0,0.0,2,154.930419921875,0,21,100,0,474,0,0,,12.333333333333334
70,41.579975843429565,0,180.63766479492188,0,0,0,0,180.90135192871094,0,0,0.5041066408157349,350,2.548806667327881,0.0,10.0,,0,0.0,4,158.57354736328125,0,24,93,0,471,0,0,,14.666666666666666
71,42.17881369590759,0,169.48912048339844,0,0,0,1,212.8013916015625,0,0,0.5040000081062317,357,2.594980001449585,0.0,9.333333333333334,,0,0.0,1,150.51426696777344,0,19,85,0,463,0,0,,13.0
72,42.77876877784729,0,179.07586669921875,0,0,0,0,179.2901611328125,0,0,0.5046826601028442,357,2.618699789047241,0.0,9.333333333333334,,0,0.0,1,157.63560485839844,0,26,95,0,479,0,0,,52.333333333333336
73,43.37697076797485,0,188.15939331054688,0,0,1,0,188.6411590576172,0,0,0.5039359927177429,356,2.584778070449829,0.0,9.666666666666666,,0,23.0,2,163.28475952148438,0,31,96,0,486,0,0,,13.0
74,43.978869676589966,0,193.4845733642578,0,0,1,0,199.28424072265625,0,0,0.5040213465690613,349,2.524341583251953,21.0,10.0,,0,15.0,2,164.84556579589844,1,36,89,1,479,0,0,,16.666666666666668
75,44.5898756980896,0,194.8167266845703,0,0,0,0,195.0786895751953,0,0,0.5035520195960999,399,2.582240104675293,0.0,9.333333333333334,,0,0.0,4,172.28170776367188,0,24,97,0,524,0,0,,9.666666666666666
76,45.1896550655365,0,175.7507781982422,0,0,0,0,175.97271728515625,0,0,0.5040640234947205,369,2.5668914318084717,0.0,9.666666666666666,,0,0.0,6,157.59059143066406,0,12,96,0,483,0,0,,14.333333333333334
77,45.80681610107422,0,195.26707458496094,0,0,0,0,195.5788116455078,0,0,0.5034880042076111,367,2.473731279373169,0.0,10.333333333333334,,0,0.0,4,170.19686889648438,0,30,89,0,490,0,0,,11.666666666666666
78,46.40533113479614,0,199.26718139648438,0,0,0,0,200.7775421142578,0,1,0.5040213465690613,368,2.600399971008301,0.0,9.0,,0,0.0,1,173.93919372558594,0,27,119,0,516,0,0,,10.333333333333334
79,47.01378393173218,0,190.88665771484375,0,0,0,0,191.13768005371094,0,0,0.5034239888191223,400,2.6214566230773926,0.0,9.333333333333334,,0,0.0,3,168.64500427246094,0,26,92,0,521,0,0,,15.333333333333334
80,47.6249885559082,0,212.1086883544922,0,0,0,0,217.64111328125,0,0,0.5040426850318909,409,2.498793601989746,14.333333333333334,10.333333333333334,,0,0.0,4,186.92312622070312,0,22,112,1,548,0,0,,13.666666666666666
81,48.231178998947144,0,197.78143310546875,0,0,0,0,198.02810668945312,0,0,0.5037866830825806,387,2.48262619972229,0.0,10.0,,0,0.0,4,175.68386840820312,0,20,102,0,513,0,0,,9.333333333333334
82,48.84760570526123,0,225.90350341796875,0,0,0,0,226.36477661132812,0,0,0.5048533082008362,420,2.6053061485290527,0.0,9.0,,0,0.0,8,195.3843994140625,1,34,124,0,587,0,0,,11.333333333333334
83,49.45554041862488,0,206.17987060546875,0,0,2,0,206.935302734375,0,0,0.5034453272819519,407,2.6713078022003174,0.0,9.0,,0,19.0,3,178.80499267578125,1,32,109,0,554,0,0,,9.333333333333334
84,50.05563759803772,0,235.9385986328125,0,0,0,0,236.27713012695312,0,0,0.5043413043022156,456,2.610146999359131,0.0,9.666666666666666,,0,0.0,4,206.31915283203125,0,35,127,0,622,0,0,,18.0
85,50.66007137298584,0,205.15762329101562,0,0,0,0,205.50926208496094,0,0,0.5035306811332703,414,2.6264002323150635,0.0,9.333333333333334,,0,0.0,5,178.2070770263672,0,36,92,0,547,0,0,,9.666666666666666
86,51.26487493515015,0,186.38780212402344,0,0,0,0,186.6876220703125,0,0,0.5041066408157349,367,2.501037120819092,0.0,10.333333333333334,,0,0.0,3,164.34732055664062,1,23,90,0,484,0,0,,14.0
87,51.88104772567749,0,222.29356384277344,0,0,0,0,222.5970916748047,0,0,0.5038293600082397,429,2.4837331771850586,0.0,10.0,,0,0.0,5,196.42784118652344,0,25,113,0,572,0,0,,17.333333333333332
88,52.48074769973755,0,229.27371215820312,0,0,0,0,229.6400909423828,0,0,0.5041279792785645,427,2.5172693729400635,0.0,9.666666666666666,,0,0.0,5,199.5677032470703,0,35,114,0,581,0,0,,14.0
89,53.090513706207275,0,229.3487091064453,0,0,1,0,229.99679565429688,0,0,0.5035946369171143,396,2.6242563724517822,0.0,9.0,,0,18.333333333333332,7,195.5020751953125,0,42,131,0,577,0,0,,11.666666666666666
90,53.691701889038086,0,203.63095092773438,0,0,0,0,203.8382568359375,0,0,0.5040426850318909,455,2.63352370262146,0.0,9.333333333333334,,0,0.0,2,182.58969116210938,0,22,97,0,576,0,0,,13.333333333333334
91,54.3005051612854,0,235.4360809326172,0,0,0,0,236.10980224609375,0,0,0.5038293600082397,397,2.5919785499572754,0.0,9.666666666666666,,0,0.0,9,198.6727752685547,3,46,126,0,581,0,0,,10.666666666666666
92,54.90126276016235,0,218.2344207763672,0,0,0,0,218.53921508789062,0,0,0.5041706562042236,428,2.763791799545288,0.0,8.333333333333334,,0,0.0,5,191.19537353515625,0,29,142,0,604,0,0,,13.0
93,55.51211357116699,0,210.58009338378906,0,0,2,0,211.40585327148438,0,0,0.5034453272819519,393,2.606790065765381,0.0,10.0,,0,12.666666666666666,4,182.52288818359375,2,28,120,0,549,0,0,,11.666666666666666
94,56.11068153381348,0,227.10507202148438,0,0,0,0,228.80035400390625,0,1,0.5040640234947205,457,2.7212183475494385,0.0,8.666666666666666,,0,0.0,6,196.22938537597656,2,36,120,0,622,0,0,,11.0
95,56.70911145210266,0,228.64468383789062,0,0,0,0,228.93380737304688,0,0,0.5034666657447815,473,2.7309446334838867,0.0,9.0,,0,0.0,4,201.8785400390625,0,29,134,0,640,0,0,,12.666666666666666
96,57.30769395828247,0,226.3149871826172,0,0,0,0,226.7244415283203,0,0,0.5040640234947205,471,2.7358338832855225,0.0,9.0,,0,0.0,10,197.58395385742188,0,32,121,0,634,0,0,,14.666666666666666
97,57.90603971481323,0,233.7829132080078,0,0,0,0,234.1359100341797,0,0,0.5034026503562927,419,2.688542127609253,0.0,9.333333333333334,,0,0.0,2,201.373291015625,0,44,140,0,605,0,0,,8.666666666666666
98,58.504575967788696,0,240.6914520263672,0,0,0,0,242.2092742919922,0,1,0.5039573311805725,506,2.714390516281128,0.0,9.0,,0,0.0,3,211.82688903808594,0,32,131,0,673,0,0,,8.0
99,59.10320067405701,0,232.5357208251953,0,0,0,0,232.8849334716797,0,0,0.5034239888191223,504,2.630545139312744,0.0,9.666666666666666,,0,0.0,6,207.1886749267578,1,23,117,0,651,0,0,,12.666666666666666
100,59.70176959037781,0,258.74578857421875,0,0,0,0,259.2167053222656,0,0,0.5040426850318909,484,2.6845123767852783,0.0,9.0,,0,0.0,7,224.35850524902344,1,39,156,0,687,0,0,,9.0
101,60.31054711341858,0,241.5030975341797,0,0,0,0,241.8209228515625,0,0,0.5038080215454102,451,2.3655197620391846,0.0,11.666666666666666,,0,0.0,2,212.3598175048828,0,34,102,0,589,0,0,,6.666666666666667
102,60.913063049316406,0,257.0263977050781,0,0,0,0,257.5101013183594,0,0,0.5045973062515259,468,2.539344310760498,0.0,9.0,,0,0.0,8,221.40771484375,0,44,127,0,647,0,0,,11.0
103,61.51167178153992,0,250.39556884765625,0,0,0,0,250.82545471191406,0,0,0.5039573311805725,485,2.590066909790039,0.0,9.333333333333334,,0,0.0,5,218.53541564941406,1,37,129,0,657,0,0,,15.333333333333334
104,62.1153826713562,0,248.58714294433594,0,0,0,0,249.1490478515625,0,0,0.5046613216400146,480,2.8152568340301514,0.0,8.0,,0,0.0,7,212.502197265625,2,50,142,0,681,0,0,,13.333333333333334
