Counter,Time,Bin 5,Bin 15,Bin 7,Bin 4,Bin 6,Bin 0,PM10,Bin 10,Bin 9,Bin 1,PM1,Bin1 MToF,Bin 13,Bin5 MToF,Sampling Period,Bin3 MToF,Temperature,Pressure,PM2.5,Checksum,SFR,Bin7 MToF,Bin 11,Bin 8,Bin 2,Bin 3,Bin 14,Bin 12
1,0.00011849403381347656,0,0,0,0,0,0,0.0,0,0,0,0.0,0.0,0,0.0,37.91991424560547,0.0,,,0.0,0,3.808823585510254,0.0,0,0,0,0,0,0
2,0.5993342399597168,0,0,0,1,0,1,1.2714158296585083,0,0,0,0.6528598070144653,0.0,0,0.0,0.5043626427650452,0.0,,,1.2289059162139893,3,3.808823585510254,0.0,0,0,1,0,0,0
3,1.2017323970794678,0,0,0,0,0,0,0.6712425351142883,0,0,0,0.3938279449939728,0.0,0,0.0,0.5038933157920837,0.0,,,0.6668244004249573,1,3.808823585510254,0.0,0,0,1,0,0,0
4,1.8016984462738037,0,0,0,1,0,2,1.835599660873413,0,0,0,0.9638562202453613,0.0,0,0.0,0.5045546889305115,7.666666666666667,,,1.780385136604309,5,3.808823585510254,0.0,0,0,1,1,0,0
5,2.4002342224121094,0,0,0,0,0,0,0.3931274116039276,0,0,1,0.33310335874557495,9.666666666666666,0,0.0,0.5038933157920837,0.0,,,0.39292362332344055,1,3.6877074241638184,0.0,0,0,0,0,0,0
6,2.999891757965088,1,0,0,0,0,1,1.257988691329956,0,0,0,0.36747878789901733,0.0,0,11.666666666666666,0.5044053196907043,9.0,,,1.0958913564682007,3,3.6877074241638184,0.0,0,0,0,1,0,0
7,3.6014819145202637,0,0,0,0,0,4,1.6183302402496338,0,0,2,1.4734432697296143,7.666666666666667,0,0.0,0.5036799907684326,0.0,,,1.617901086807251,6,3.6253602504730225,0.0,0,0,0,0,0,0
8,4.209529161453247,0,0,0,0,0,5,1.0212981700897217,0,0,0,0.9929355978965759,0.0,0,0.0,0.5044053196907043,0.0,,,1.0212801694869995,5,3.6253602504730225,0.0,0,0,0,0,0,0
9,4.811124324798584,0,0,0,1,0,8,2.0641086101531982,0,0,0,1.6651474237442017,0.0,0,0.0,0.5036373138427734,0.0,,,2.0240018367767334,9,3.6253602504730225,0.0,0,0,0,0,0,0
10,5.4193055629730225,0,0,0,0,0,8,4.263682842254639,0,0,2,3.245587110519409,7.333333333333333,0,0.0,0.5046613216400146,11.0,,,4.240424156188965,13,3.5959079265594482,0.0,0,0,2,1,0,0
11,6.017760515213013,0,0,0,0,0,10,2.8598198890686035,0,0,2,2.679957866668701,6.666666666666667,0,0.0,0.5039359927177429,0.0,,,2.8593668937683105,12,3.6055684089660645,0.0,0,0,0,0,0,0
12,6.620179176330566,1,0,0,0,0,11,5.160366535186768,0,0,1,3.5452206134796143,7.0,0,9.0,0.5047893524169922,7.666666666666667,,,4.984956741333008,16,3.6017699241638184,0.0,0,0,2,1,0,0
13,7.223488092422485,0,0,0,0,0,7,2.5565199851989746,0,0,1,2.1611461639404297,7.0,0,0.0,0.5036799907684326,0.0,,,2.551607131958008,9,3.598308563232422,0.0,0,0,1,0,0,0
14,7.826765060424805,0,0,0,0,0,14,4.89231014251709,0,0,2,4.116896629333496,8.666666666666666,0,0.0,0.50408536195755,7.666666666666667,,,4.873299598693848,18,3.5238094329833984,0.0,0,0,1,1,0,0
15,8.434866905212402,0,0,0,0,0,25,7.531824111938477,0,0,5,6.820725917816162,6.0,0,0.0,0.5039786696434021,10.333333333333334,,,7.517258644104004,31,3.6097559928894043,0.0,0,0,0,1,0,0
16,9.034485816955566,0,0,1,0,0,25,12.165072441101074,0,0,2,6.630044460296631,9.0,0,0.0,0.5043839812278748,0.0,,,8.436603546142578,30,3.539611339569092,9.666666666666666,0,0,2,0,0,0
17,9.636101722717285,0,0,0,0,0,53,13.833697319030762,0,0,3,12.506014823913574,5.0,0,0.0,0.5037013292312622,8.333333333333334,,,13.810227394104004,59,3.627450942993164,0.0,0,0,2,1,0,0
18,10.243379354476929,0,0,0,0,0,53,14.385459899902344,0,0,6,13.161153793334961,7.0,0,0.0,0.5038506388664246,9.0,,,14.365930557250977,61,3.6119048595428467,0.0,0,0,1,1,0,0
19,10.845748901367188,0,0,0,1,0,60,19.580703735351562,0,0,11,17.082149505615234,6.666666666666667,0,0.0,0.5037013292312622,9.0,,,19.51091194152832,76,3.6301887035369873,0.0,0,0,3,1,0,0
20,11.451486587524414,0,0,0,0,1,69,21.882274627685547,0,0,6,17.69908332824707,6.0,0,0.0,0.5046399831771851,7.666666666666667,,,20.93950080871582,82,3.6746573448181152,0.0,0,0,5,1,0,0
21,12.049761533737183,0,0,0,0,1,74,24.213489532470703,0,0,16,20.347013473510742,6.0,0,0.0,0.5038719773292542,8.333333333333334,,,23.302358627319336,94,3.76098895072937,0.0,0,0,2,1,0,0
22,12.653404235839844,0,0,0,1,0,99,25.13566017150879,0,0,9,22.909469604492188,6.666666666666667,0,0.0,0.5048320293426514,8.333333333333334,,,25.073041915893555,112,3.752920150756836,0.0,0,0,2,1,0,0
23,13.259759187698364,0,0,0,0,0,100,27.868288040161133,0,0,18,25.71043586730957,6.333333333333333,0,0.0,0.5032320022583008,0.0,,,27.855457305908203,120,3.7847225666046143,0.0,0,0,2,0,0,0
24,13.86281442642212,0,0,0,0,1,116,32.639259338378906,0,0,14,28.15924835205078,6.333333333333333,0,0.0,0.5047680139541626,11.0,,,31.731704711914062,136,3.8050570487976074,0.0,0,0,4,1,0,0
25,14.468729972839355,0,0,0,0,0,127,38.06257247924805,0,0,27,34.66307830810547,6.666666666666667,0,0.0,0.5037013292312622,0.0,,,38.03889465332031,158,3.771820068359375,0.0,0,0,4,0,0,0
26,15.0680513381958,0,0,0,0,0,163,47.118743896484375,0,0,30,42.83439254760742,6.333333333333333,0,0.0,0.5040213465690613,0.0,,,47.085792541503906,199,3.8119213581085205,0.0,0,0,6,0,0,0
27,15.674004316329956,1,0,0,0,0,150,38.32830047607422,0,0,18,35.28450012207031,6.666666666666667,0,11.0,0.5031893253326416,0.0,,,38.16984176635742,171,3.785496473312378,0.0,0,0,2,0,0,0
28,16.277293920516968,0,0,0,0,0,199,56.191715240478516,0,0,26,50.74821853637695,7.0,0,0.0,0.5049600005149841,9.0,,,56.123321533203125,235,3.7023727893829346,0.0,0,0,8,2,0,0
29,16.88233709335327,0,0,0,0,0,219,58.72269058227539,0,0,23,53.37213134765625,6.333333333333333,0,0.0,0.5031466484069824,5.666666666666667,,,58.663970947265625,252,3.753748655319214,0.0,0,0,9,1,0,0
30,17.485772848129272,1,0,0,0,0,182,54.36129379272461,0,0,33,48.384437561035156,6.333333333333333,0,10.333333333333334,0.5048533082008362,7.0,,,54.16176986694336,225,3.8025929927825928,0.0,0,0,8,1,0,0
31,18.0908784866333,0,0,0,0,0,227,64.80935668945312,0,0,42,59.4300422668457,6.666666666666667,0,0.0,0.5032533407211304,7.0,,,64.76483154296875,275,3.7596676349639893,0.0,0,0,5,1,0,0
32,18.693984985351562,0,0,0,2,0,229,64.19608306884766,0,0,33,57.019805908203125,6.0,0,0.0,0.5047893524169922,8.333333333333334,,,64.02521514892578,277,3.8772804737091064,0.0,0,0,9,4,0,0
33,19.300714254379272,0,0,0,0,0,252,64.52156829833984,0,0,33,59.45078659057617,6.333333333333333,0,0.0,0.5032533407211304,9.666666666666666,,,64.46762084960938,292,3.8834567070007324,0.0,0,0,5,2,0,0
34,19.9039146900177,2,0,0,0,0,269,77.06609344482422,0,0,49,69.5985336303711,6.666666666666667,0,9.0,0.5048533082008362,0.0,,,76.73560333251953,327,3.798783302307129,0.0,0,0,7,0,0,0
35,20.510192155838013,0,0,0,0,0,262,74.92296600341797,0,0,52,68.59020233154297,6.333333333333333,0,0.0,0.503167986869812,0.0,,,74.88118743896484,321,3.842738389968872,0.0,0,0,7,0,0,0
36,21.113365411758423,0,0,0,0,1,262,75.07067108154297,0,0,50,66.0941390991211,5.666666666666667,0,0.0,0.5048320293426514,7.666666666666667,,,74.17977905273438,326,4.058988094329834,0.0,0,0,12,1,0,0
37,21.718705415725708,0,0,0,0,0,293,79.2658462524414,0,0,49,71.31949615478516,6.0,0,0.0,0.5032106637954712,8.333333333333334,,,79.17064666748047,357,4.082254886627197,0.0,0,0,12,3,0,0
38,22.322024822235107,0,0,0,0,0,318,80.83271026611328,0,0,43,73.364013671875,6.0,0,0.0,0.5048320293426514,7.666666666666667,,,80.75093841552734,375,4.094252109527588,0.0,0,0,12,2,0,0
39,22.928266048431396,0,0,0,0,0,330,87.15350341796875,0,0,55,79.18279266357422,6.0,0,0.0,0.5039786696434021,0.0,,,87.08906555175781,398,4.102297782897949,0.0,0,0,13,0,0,0
40,23.528294324874878,0,0,0,0,0,330,95.56549072265625,0,0,70,85.8819580078125,6.333333333333333,0,0.0,0.5046399831771851,9.0,,,95.45233917236328,416,3.995823383331299,0.0,0,0,12,4,0,0
41,24.126564502716064,0,0,0,0,1,340,97.40523529052734,0,0,62,86.77401733398438,6.333333333333333,0,0.0,0.5038506388664246,0.0,,,96.4879379272461,417,3.9446325302124023,0.0,0,0,14,0,0,0
42,24.73023557662964,0,0,0,0,0,357,94.84230041503906,0,0,69,87.40023803710938,6.0,0,0.0,0.5048320293426514,0.0,,,94.79908752441406,433,4.026151657104492,0.0,0,0,7,0,0,0
43,25.33667492866516,0,0,0,1,0,368,101.58637237548828,0,0,51,90.68350219726562,6.333333333333333,0,0.0,0.5032320022583008,7.0,,,101.42930603027344,442,3.9646873474121094,0.0,0,0,20,2,0,0
44,25.939854383468628,0,0,0,0,0,416,105.0330581665039,0,0,54,95.64684295654297,6.0,0,0.0,0.5048746466636658,8.0,,,104.91168212890625,487,4.0327229499816895,0.0,0,0,12,5,0,0
45,26.545310735702515,0,0,0,1,0,386,109.90717315673828,0,0,68,98.4922103881836,6.333333333333333,0,0.0,0.5034239888191223,8.0,,,109.75530242919922,475,3.962528705596924,0.0,0,0,18,2,0,0
46,27.143728971481323,0,0,0,0,0,433,114.87374114990234,0,0,76,104.91153717041016,6.0,0,0.0,0.5038293600082397,7.333333333333333,,,114.7762451171875,523,4.035452842712402,0.0,0,0,11,3,0,0
47,27.74294424057007,0,0,0,0,0,443,127.76374816894531,0,0,74,113.68233489990234,6.333333333333333,0,0.0,0.5038293600082397,7.333333333333333,,,127.60114288330078,546,3.963846445083618,0.0,0,0,26,3,0,0
48,28.346733570098877,0,0,0,1,0,408,123.89862060546875,0,0,89,111.58723449707031,6.666666666666667,0,0.0,0.5050879716873169,9.0,,,123.75912475585938,515,3.8273813724517822,0.0,0,0,16,1,0,0
49,28.951792001724243,0,0,0,0,0,413,121.74790954589844,0,0,84,109.90110778808594,6.333333333333333,0,0.0,0.503167986869812,8.666666666666666,,,121.61869049072266,515,3.8607654571533203,0.0,0,0,14,4,0,0
50,29.554917812347412,1,0,0,1,0,458,135.52513122558594,0,0,87,119.62422180175781,6.0,0,11.0,0.5048106908798218,9.0,,,135.166748046875,577,3.9820075035095215,0.0,0,0,25,5,0,0
51,30.16112756729126,0,0,0,0,0,464,126.1391372680664,0,0,79,115.25035095214844,6.333333333333333,0,0.0,0.5040000081062317,0.0,,,126.05843353271484,558,3.9378883838653564,0.0,0,0,15,0,0,0
52,30.759984016418457,0,0,1,0,0,452,133.65570068359375,0,0,83,115.6502685546875,6.0,0,0.0,0.5037866830825806,6.666666666666667,,,130.22628784179688,563,4.0226359367370605,12.333333333333334,0,0,24,3,0,0
53,31.36113977432251,0,0,0,0,0,492,134.68067932128906,0,0,95,122.16124725341797,6.0,0,0.0,0.5038080215454102,5.333333333333333,,,134.5595245361328,606,4.066392421722412,0.0,0,0,16,3,0,0
54,31.968677759170532,0,0,0,0,0,470,131.48927307128906,0,0,95,117.45442199707031,5.666666666666667,0,0.0,0.5038719773292542,7.333333333333333,,,131.3477020263672,592,4.2047905921936035,0.0,0,0,25,2,0,0
55,32.57098627090454,2,0,0,0,0,458,128.29393005371094,0,0,82,112.01669311523438,5.666666666666667,0,11.666666666666666,0.503658652305603,8.0,,,127.83477783203125,578,4.277583122253418,0.0,0,0,30,6,0,0
56,33.18124580383301,0,0,0,0,0,506,134.98768615722656,0,0,97,122.16910552978516,6.0,0,0.0,0.5038933157920837,6.333333333333333,,,134.86178588867188,624,4.192695140838623,0.0,0,0,18,3,0,0
57,33.779245138168335,0,0,0,1,0,512,155.91175842285156,0,0,119,137.12274169921875,6.0,0,0.0,0.5030400156974792,5.333333333333333,,,155.6686553955078,670,4.15150260925293,0.0,0,0,34,4,0,0
58,34.37798452377319,1,0,1,0,0,520,157.26876831054688,0,0,121,136.31173706054688,6.0,0,11.0,0.5037226676940918,8.333333333333334,,,153.77293395996094,672,4.1312079429626465,17.666666666666668,0,0,25,4,0,0
59,34.9762818813324,0,0,0,0,0,526,152.1463165283203,0,0,110,138.30055236816406,6.666666666666667,0,0.0,0.5031893253326416,7.666666666666667,,,152.02940368652344,654,3.9037325382232666,0.0,0,0,16,2,0,0
60,35.57484984397888,0,0,0,0,0,561,165.1363525390625,0,0,100,147.17080688476562,6.333333333333333,0,0.0,0.5035306811332703,10.0,,,164.91525268554688,696,3.8992292881011963,0.0,0,0,29,6,0,0
61,36.17322278022766,0,0,0,0,0,512,172.3192138671875,0,0,127,150.57691955566406,6.333333333333333,0,0.0,0.5030613541603088,8.333333333333334,,,172.06195068359375,683,3.896981954574585,0.0,0,0,39,5,0,0
62,36.776968002319336,0,0,0,0,0,583,162.9933319091797,0,0,102,146.54029846191406,6.0,0,0.0,0.5047680139541626,8.0,,,162.82264709472656,715,4.00118350982666,0.0,0,0,27,3,0,0
63,37.37635254859924,0,0,0,0,0,530,166.37814331054688,0,0,136,147.45904541015625,6.0,0,0.0,0.5038506388664246,13.666666666666666,,,166.19451904296875,700,4.055402755737305,0.0,0,0,32,2,0,0
64,37.980034589767456,0,0,0,0,0,576,168.5641326904297,0,0,117,151.1719207763672,6.333333333333333,0,0.0,0.5048106908798218,7.0,,,168.3974151611328,723,3.9734461307525635,0.0,0,0,28,2,0,0
65,38.582191944122314,0,0,0,2,0,585,167.69110107421875,0,0,127,151.1546630859375,6.0,0,0.0,0.5036799907684326,6.666666666666667,,,167.482177734375,737,4.041106224060059,0.0,0,0,21,2,0,0
66,39.18158006668091,0,0,0,0,0,560,170.41844177246094,0,0,119,151.37269592285156,6.333333333333333,0,0.0,0.50408536195755,7.0,,,170.2174530029297,715,3.966571807861328,0.0,0,0,33,3,0,0
67,39.780564069747925,0,0,0,0,0,571,166.2386932373047,0,0,112,149.09536743164062,6.333333333333333,0,0.0,0.5037440061569214,7.0,,,166.02236938476562,713,3.930326223373413,0.0,0,0,22,8,0,0
68,40.3830361366272,0,0,0,0,0,587,194.95970153808594,0,0,135,168.17108154296875,6.0,0,0.0,0.5048959851264954,7.666666666666667,,,194.6221160888672,785,4.018686294555664,0.0,0,0,57,6,0,0
69,40.983911991119385,0,0,0,1,0,618,190.6871795654297,0,0,157,169.23497009277344,6.0,0,0.0,0.5038719773292542,7.333333333333333,,,190.4204559326172,813,4.064373016357422,0.0,0,0,31,6,0,0
70,41.58793663978577,0,0,0,1,0,594,178.74578857421875,0,0,145,157.72836303710938,5.666666666666667,0,0.0,0.5052800178527832,8.0,,,178.49740600585938,781,4.203710556030273,0.0,0,0,38,3,0,0
71,42.19502329826355,0,0,0,0,0,613,185.4306640625,0,0,167,165.93252563476562,6.0,0,0.0,0.5039573311805725,6.0,,,185.26187133789062,810,4.156895160675049,0.0,0,0,28,2,0,0
72,42.79463863372803,0,0,0,0,0,604,188.6957550048828,0,0,160,164.9507293701172,5.666666666666667,0,0.0,0.5043626427650452,7.666666666666667,,,188.4193878173828,815,4.252659797668457,0.0,0,0,45,6,0,0
73,43.3962779045105,1,0,0,1,0,599,187.83909606933594,0,0,167,165.43516540527344,6.0,0,17.666666666666668,0.5038933157920837,7.666666666666667,,,187.45362854003906,807,4.180687427520752,0.0,0,0,35,4,0,0
74,44.005900859832764,0,0,0,1,0,668,189.122802734375,0,0,146,166.4352264404297,5.333333333333333,0,0.0,0.5038506388664246,7.0,,,188.83509826660156,865,4.391634464263916,0.0,0,0,45,5,0,0
75,44.60700249671936,0,0,0,0,0,638,188.56842041015625,0,0,162,167.6699676513672,6.0,0,0.0,0.5036159753799438,6.333333333333333,,,188.35723876953125,838,4.2467451095581055,0.0,0,0,34,4,0,0
76,45.21511363983154,0,0,0,1,0,641,190.8193359375,0,0,155,168.98580932617188,6.0,0,0.0,0.5045333504676819,7.666666666666667,,,190.53683471679688,838,4.17782735824585,0.0,0,0,34,7,0,0
77,45.81356358528137,0,0,0,0,0,672,216.95201110839844,0,0,163,189.5641632080078,6.333333333333333,0,0.0,0.5039573311805725,9.666666666666666,,,216.6223907470703,893,4.031318187713623,0.0,0,0,51,7,0,0
78,46.41385841369629,0,0,0,0,0,668,203.98089599609375,0,0,146,179.59559631347656,6.0,0,0.0,0.5045760273933411,8.333333333333334,,,203.7024688720703,865,4.070823669433594,0.0,0,0,46,5,0,0
79,47.01201272010803,0,0,0,0,0,628,186.5491180419922,0,0,145,166.5513153076172,6.0,0,0.0,0.5037440061569214,7.333333333333333,,,186.3609619140625,808,4.09086799621582,0.0,0,0,33,2,0,0
80,47.615681409835815,0,0,1,0,1,677,211.8654022216797,0,0,174,182.12257385253906,5.666666666666667,0,0.0,0.5048320293426514,7.0,,,207.70509338378906,901,4.217837810516357,9.666666666666666,0,0,44,4,0,0
81,48.221834659576416,0,0,0,0,0,681,202.1765899658203,0,0,174,179.13873291015625,5.666666666666667,0,0.0,0.5038506388664246,7.666666666666667,,,201.948974609375,899,4.2843241691589355,0.0,0,0,41,3,0,0
82,48.820868730545044,0,0,0,0,0,705,220.32984924316406,0,0,210,193.8610076904297,5.666666666666667,0,0.0,0.5040213465690613,9.0,,,220.0558319091797,966,4.318360328674316,0.0,0,0,46,5,0,0
83,49.419960260391235,0,0,0,0,0,663,208.29837036132812,0,0,208,183.86196899414062,5.666666666666667,0,0.0,0.5039573311805725,6.666666666666667,,,208.074951171875,915,4.335582256317139,0.0,0,0,42,2,0,0
84,50.02255654335022,0,0,0,1,0,710,206.32627868652344,0,0,184,183.38720703125,5.666666666666667,0,0.0,0.5037013292312622,8.0,,,206.07806396484375,936,4.344244480133057,0.0,0,0,38,3,0,0
85,50.628674030303955,0,0,0,0,0,667,195.38304138183594,0,0,157,171.52426147460938,5.666666666666667,0,0.0,0.5031466484069824,7.333333333333333,,,195.09011840820312,877,4.348587989807129,0.0,0,0,45,8,0,0
86,51.226696252822876,0,0,0,0,0,720,232.06138610839844,0,0,200,202.21682739257812,6.0,0,0.0,0.5031039714813232,7.666666666666667,,,231.7157745361328,984,4.226516246795654,0.0,0,0,57,7,0,0
87,51.824496030807495,0,0,0,1,0,686,219.14334106445312,0,0,202,193.4125213623047,6.0,0,0.0,0.5032533407211304,8.333333333333334,,,218.84988403320312,934,4.168015480041504,0.0,0,0,40,5,0,0
88,52.42400121688843,0,0,0,0,0,692,223.68922424316406,0,0,193,196.2661895751953,6.0,0,0.0,0.5046826601028442,8.333333333333334,,,223.409912109375,939,4.13936710357666,0.0,0,0,51,3,0,0
89,53.030887842178345,1,0,0,1,0,707,225.51710510253906,0,0,205,197.05288696289062,5.666666666666667,0,9.0,0.5037866830825806,6.333333333333333,,,225.03689575195312,969,4.243468761444092,0.0,0,0,47,8,0,0
90,53.629887342453,0,0,0,1,0,682,221.59535217285156,0,0,199,193.90084838867188,6.0,0,0.0,0.5033813118934631,9.0,,,221.24400329589844,936,4.176241397857666,0.0,0,0,46,8,0,0
91,54.22724890708923,0,0,0,1,0,728,239.3400115966797,0,0,197,207.74655151367188,6.0,0,0.0,0.5032106637954712,7.0,,,238.92141723632812,994,4.143420219421387,0.0,0,0,59,9,0,0
92,54.833693504333496,0,0,0,0,0,711,227.57827758789062,0,0,205,199.3447265625,5.666666666666667,0,0.0,0.5040640234947205,7.333333333333333,,,227.29159545898438,973,4.2455973625183105,0.0,0,0,54,3,0,0
93,55.44250988960266,0,0,0,0,0,738,250.76084899902344,0,0,202,217.21273803710938,6.333333333333333,0,0.0,0.5037866830825806,8.666666666666666,,,250.36407470703125,1013,4.062605857849121,0.0,0,0,66,7,0,0
94,56.0524377822876,0,0,0,0,0,731,246.6359100341797,0,0,214,215.0074005126953,6.0,0,0.0,0.5043626427650452,7.0,,,246.2845001220703,1009,4.086714744567871,0.0,0,0,58,6,0,0
95,56.652087450027466,0,0,0,0,0,742,243.26780700683594,0,0,221,212.3798370361328,5.666666666666667,0,0.0,0.5034453272819519,7.666666666666667,,,242.92922973632812,1026,4.215628623962402,0.0,0,0,57,6,0,0
96,57.26619577407837,0,0,0,0,0,775,232.1710968017578,0,0,191,204.2019500732422,5.666666666666667,0,0.0,0.5043626427650452,8.333333333333334,,,231.8593292236328,1025,4.283185005187988,0.0,0,0,53,6,0,0
97,57.87471079826355,0,0,0,0,0,719,226.9285125732422,0,0,183,196.17794799804688,5.666666666666667,0,0.0,0.5037013292312622,7.666666666666667,,,226.55458068847656,976,4.317781448364258,0.0,0,0,67,7,0,0
98,58.47457003593445,0,0,0,0,0,729,249.65689086914062,0,0,225,215.62042236328125,6.0,0,0.0,0.5044053196907043,7.0,,,249.27760314941406,1029,4.211912631988525,0.0,0,0,70,5,0,0
99,59.078980922698975,0,0,0,0,0,725,256.461669921875,0,0,230,220.71096801757812,6.0,0,0.0,0.5038933157920837,8.666666666666666,,,256.060302734375,1034,4.1609015464782715,0.0,0,0,74,5,0,0
100,59.6869261264801,1,0,0,0,0,768,243.84181213378906,0,0,189,214.83163452148438,6.333333333333333,0,5.666666666666667,0.5047253370285034,6.333333333333333,,,243.43431091308594,1012,4.0234222412109375,0.0,0,0,53,1,0,0
101,60.28511452674866,0,0,0,0,0,793,260.9684143066406,0,0,220,228.3622589111328,6.0,0,0.0,0.5034453272819519,9.666666666666666,,,260.5702209472656,1078,4.066794395446777,0.0,0,0,54,11,0,0
102,60.88406801223755,0,0,0,0,0,746,251.69076538085938,0,0,225,217.648193359375,5.666666666666667,0,0.0,0.5044266581535339,7.666666666666667,,,251.27320861816406,1046,4.205005168914795,0.0,0,0,65,10,0,0
103,61.48570251464844,0,0,0,0,0,743,250.7569122314453,0,0,214,219.38870239257812,6.333333333333333,0,0.0,0.5036373138427734,7.333333333333333,,,250.43724060058594,1018,4.043928623199463,0.0,0,0,58,3,0,0
104,62.093050479888916,0,0,0,2,0,750,274.8907775878906,0,0,235,237.08543395996094,6.333333333333333,0,0.0,0.5038293600082397,9.0,,,274.42431640625,1063,3.967930793762207,0.0,0,0,73,3,0,0
105,62.69290781021118,1,0,0,0,0,746,259.9370422363281,0,0,242,224.90394592285156,5.666666666666667,0,11.666666666666666,0.5036799907684326,9.0,,,259.4093933105469,1060,4.151528358459473,0.0,0,0,63,8,0,0
